1,1.4643,1
2,15.255,1
3,79.067,1
4,268.95,1
5,670.77,1
6,1306.6,1
7,2074.1,1
8,2754.9,1
9,3082.9,1
10,2824.7,1
11,1841.8,1
12,121.49,1
13,-2222.3,1
14,-4973.6,1
15,-7855.2,1
16,-10575,1
17,-12868,1
18,-14534,1
19,-15453,1
20,-15595,1
21,-15012,1
22,-13825,1
23,-12197,1
24,-10315,1
25,-8362.4,1
26,-6497.5,1
27,-4843,1
28,-3476.4,1
29,-2429.1,1
30,-1691.4,1
31,-1220.7,1
32,-953.35,1
33,-815.95,1
34,-736.21,1
35,-651.5,1
36,-514.68,1
37,-296.88,1
38,12.516,1
39,408.07,1
40,872.1,1
41,1379.3,1
42,1901.3,1
43,2411.2,1
44,2886.2,1
45,3310.1,1
46,3674,1
47,3975.8,1
48,4219.7,1
49,4414.3,1
50,4570.7,1
51,4700.9,1
52,4816,1
53,4925.2,1
54,5034.8,1
55,5148.5,1
56,5266.8,1
57,5388.3,1
58,5509.7,1
59,5626.8,1
60,5735.6,1
61,5832.2,1
62,5913.7,1
63,5978.3,1
64,6025.2,1
65,6054.7,1
66,6068.1,1
67,6067,1
68,6053.7,1
69,6030.2,1
70,5998.7,1
71,5960.5,1
72,5916.8,1
73,5868.5,1
74,5815.8,1
75,5759.1,1
76,5698.3,1
77,5633.6,1
78,5564.9,1
79,5492.2,1
80,5415.6,1
81,5335,1
82,5250.4,1
83,5161.8,1
84,5068.9,1
85,4971.9,1
86,4870.7,1
87,4765.6,1
88,4656.9,1
89,4545,1
90,4430.2,1
91,4313,1
92,4193.5,1
93,4071.9,1
94,3948.3,1
95,3822.8,1
96,3695.9,1
97,3567.7,1
98,3438.4,1
99,3308.2,1
100,3177.2,1
101,3045.2,1
102,2912.3,1
103,2778.4,1
104,2643.3,1
105,2506.9,1
106,2369.3,1
107,2230.4,1
108,2090.4,1
109,1949.6,1
110,1808.3,1
111,1666.9,1
112,1526,1
113,1386.2,1
114,1248,1
115,1111.7,1
116,977.47,1
117,845.39,1
118,715.37,1
119,587.23,1
120,460.75,1
121,335.64,1
122,211.61,1
123,88.393,1
124,-34.165,1
125,-156.14,1
126,-277.52,1
127,-398.2,1
128,-517.96,1
129,-636.51,1
130,-753.49,1
131,-868.56,1
132,-981.44,1
133,-1091.9,1
134,-1199.9,1
135,-1305.5,1
136,-1408.6,1
137,-1509.5,1
138,-1608.2,1
139,-1704.8,1
140,-1799.4,1
141,-1892.1,1
142,-1982.8,1
143,-2071.4,1
144,-2157.8,1
145,-2241.9,1
146,-2323.6,1
147,-2402.6,1
148,-2478.9,1
149,-2552.4,1
150,-2623.1,1
151,-2691.3,1
152,-2757.1,1
153,-2820.6,1
154,-2881.8,1
155,-2940.6,1
156,-2996.8,1
157,-3050.2,1
158,-3100.6,1
159,-3147.9,1
160,-3192,1
161,-3232.9,1
162,-3270.8,1
163,-3305.9,1
164,-3338.3,1
165,-3368.4,1
166,-3396.4,1
167,-3422.3,1
168,-3446.5,1
169,-3468.7,1
170,-3489.2,1
171,-3507.7,1
172,-3524.3,1
173,-3538.8,1
174,-3551,1
175,-3561,1
176,-3568.6,1
177,-3573.9,1
178,-3576.9,1
179,-3577.5,1
180,-3575.8,1
181,-3571.8,1
182,-3565.4,1
183,-3556.7,1
184,-3545.5,1
185,-3531.8,1
186,-3515.4,1
187,-3496.4,1
188,-3474.6,1
189,-3450.3,1
190,-3424,1
191,-3396.2,1
192,-3367.3,1
193,-3338,1
194,-3308.6,1
195,-3279.2,1
196,-3249.5,1
197,-3219.4,1
198,-3188.5,1
199,-3156.5,1
200,-3123.2,1
201,-3088.3,1
202,-3051.8,1
203,-3013.7,1
204,-2973.9,1
205,-2932.8,1
206,-2890.3,1
207,-2846.7,1
208,-2802.1,1
209,-2756.7,1
210,-2710.4,1
211,-2663.5,1
212,-2615.7,1
213,-2567.2,1
214,-2517.7,1
215,-2467.2,1
216,-2415.4,1
217,-2362.1,1
218,-2307.4,1
219,-2251.3,1
220,-2193.9,1
221,-2135.4,1
222,-2076,1
223,-2016.1,1
224,-1955.8,1
225,-1895.4,1
226,-1835.1,1
227,-1775.2,1
228,-1715.7,1
229,-1656.7,1
230,-1598.4,1
231,-1540.6,1
232,-1483.4,1
233,-1426.6,1
234,-1370.1,1
235,-1313.6,1
236,-1257.2,1
237,-1200.5,1
238,-1143.5,1
239,-1086.2,1
240,-1028.4,1
241,-970.29,1
242,-911.83,1
243,-853.1,1
244,-794.18,1
245,-735.18,1
246,-676.17,1
247,-617.24,1
248,-558.47,1
249,-499.9,1
250,-441.58,1
251,-383.54,1
252,-325.79,1
253,-268.35,1
254,-211.22,1
255,-154.41,1
256,-97.933,1
257,-41.807,1
258,13.946,1
259,69.299,1
260,124.22,1
261,178.68,1
262,232.64,1
263,286.07,1
264,338.93,1
265,391.21,1
266,442.86,1
267,493.88,1
268,544.24,1
269,593.95,1
270,643.06,1
271,691.64,1
272,739.81,1
273,787.64,1
274,835.19,1
275,882.52,1
276,929.61,1
277,976.34,1
278,1022.5,1
279,1067.8,1
280,1112,1
281,1154.9,1
282,1196.2,1
283,1235.9,1
284,1274.2,1
285,1311,1
286,1346.8,1
287,1381.5,1
288,1415.5,1
289,1448.9,1
290,1481.7,1
291,1514,1
292,1545.6,1
293,1576.6,1
294,1606.7,1
295,1635.9,1
296,1664,1
297,1690.8,1
298,1716.2,1
299,1740.3,1
300,1763.2,1
301,1785,1
302,1805.8,1
303,1825.8,1
304,1844.8,1
305,1863,1
306,1880.2,1
307,1896.3,1
308,1911.3,1
309,1925.1,1
310,1937.8,1
311,1949.2,1
312,1959.5,1
313,1968.6,1
314,1976.6,1
315,1983.4,1
316,1989.1,1
317,1993.3,1
318,1995.8,1
319,1996.6,1
320,1995.6,1
321,1992.9,1
322,1989,1
323,1984.2,1
324,1978.6,1
325,1972.4,1
326,1965.6,1
327,1958.2,1
328,1949.9,1
329,1940.7,1
330,1930.8,1
331,1920.2,1
332,1909.3,1
333,1898.2,1
334,1887.3,1
335,1876.6,1
336,1866.3,1
337,1856.1,1
338,1846.1,1
339,1836,1
340,1825.8,1
341,1815.3,1
342,1804.3,1
343,1792.7,1
344,1780.3,1
345,1766.9,1
346,1752.3,1
347,1736.5,1
348,1719.3,1
349,1700.8,1
350,1681.3,1
351,1660.8,1
352,1639.7,1
353,1618.1,1
354,1596.3,1
355,1574.4,1
356,1552.5,1
357,1530.4,1
358,1507.9,1
359,1484.7,1
360,1460.8,1
361,1436,1
362,1410.4,1
363,1384,1
364,1357.1,1
365,1329.6,1
366,1301.7,1
367,1273.5,1
368,1245.1,1
369,1216.6,1
370,1188.1,1
371,1159.8,1
372,1131.8,1
373,1104.2,1
374,1077.5,1
375,1051.6,1
376,1026.8,1
377,1002.9,1
378,979.69,1
379,956.79,1
380,933.65,1
381,909.73,1
382,884.54,1
383,857.77,1
384,829.26,1
385,799.06,1
386,767.32,1
387,734.31,1
388,700.37,1
389,665.94,1
390,631.55,1
391,597.71,1
392,564.9,1
393,533.42,1
394,503.42,1
395,474.88,1
396,447.61,1
397,421.32,1
398,395.64,1
399,370.17,1
400,344.56,1
401,318.48,1
402,291.66,1
403,263.92,1
404,235.18,1
405,205.56,1
406,175.36,1
407,145.01,1
408,115.04,1
409,85.938,1
410,58.11,1
411,31.725,1
412,6.67,1
413,-17.402,1
414,-40.954,1
415,-64.433,1
416,-88.179,1
417,-112.38,1
418,-137.08,1
419,-162.19,1
420,-187.54,1
421,-212.86,1
422,-237.93,1
423,-262.58,1
424,-286.78,1
425,-310.52,1
426,-333.83,1
427,-356.73,1
428,-379.14,1
429,-400.96,1
430,-422.03,1
431,-442.19,1
432,-461.32,1
433,-479.38,1
434,-496.46,1
435,-512.76,1
436,-528.59,1
437,-544.31,1
438,-560.34,1
439,-577.07,1
440,-594.8,1
441,-613.7,1
442,-633.81,1
443,-655.05,1
444,-677.23,1
445,-700.02,1
446,-722.9,1
447,-745.25,1
448,-766.36,1
449,-785.61,1
450,-802.5,1
451,-816.82,1
452,-828.64,1
453,-838.3,1
454,-846.41,1
455,-853.66,1
456,-860.78,1
457,-868.35,1
458,-876.69,1
459,-885.87,1
460,-895.65,1
461,-905.53,1
462,-914.94,1
463,-923.32,1
464,-930.27,1
465,-935.47,1
466,-938.75,1
467,-940.01,1
468,-939.27,1
469,-936.62,1
470,-932.27,1
471,-926.51,1
472,-919.7,1
473,-912.21,1
474,-904.41,1
475,-896.58,1
476,-888.99,1
477,-881.86,1
478,-875.39,1
479,-869.75,1
480,-865.07,1
481,-861.43,1
482,-858.77,1
483,-856.83,1
484,-855.22,1
485,-853.42,1
486,-850.99,1
487,-847.56,1
488,-842.99,1
489,-837.33,1
490,-830.77,1
491,-823.6,1
492,-816.12,1
493,-808.58,1
494,-801.11,1
495,-793.78,1
496,-786.55,1
497,-779.34,1
498,-772.13,1
499,-764.95,1
500,-757.91,1
501,-751.09,1
502,-744.54,1
503,-738.22,1
504,-731.95,1
505,-725.53,1
506,-718.68,1
507,-711.11,1
508,-702.58,1
509,-692.88,1
510,-681.99,1
511,-670.03,1
512,-657.31,1
513,-644.27,1
514,-631.39,1
515,-619.14,1
516,-607.83,1
517,-597.59,1
518,-588.37,1
519,-580.04,1
520,-572.45,1
521,-565.41,1
522,-558.7,1
523,-552.05,1
524,-545.14,1
525,-537.63,1
526,-529.22,1
527,-519.78,1
528,-509.33,1
529,-498.05,1
530,-486.2,1
531,-474.02,1
532,-461.75,1
533,-449.62,1
534,-437.79,1
535,-426.41,1
536,-415.58,1
537,-405.35,1
538,-395.69,1
539,-386.53,1
540,-377.7,1
541,-369.01,1
542,-360.2,1
543,-351,1
544,-341.17,1
545,-330.49,1
546,-318.85,1
547,-306.21,1
548,-292.63,1
549,-278.28,1
550,-263.45,1
551,-248.54,1
552,-233.89,1
553,-219.81,1
554,-206.46,1
555,-193.89,1
556,-182.06,1
557,-170.9,1
558,-160.35,1
559,-150.32,1
560,-140.67,1
561,-131.22,1
562,-121.73,1
563,-112.02,1
564,-101.94,1
565,-91.427,1
566,-80.422,1
567,-68.887,1
568,-56.813,1
569,-44.247,1
570,-31.317,1
571,-18.251,1
572,-5.3708,1
573,6.9542,1
574,18.37,1
575,28.607,1
576,37.546,1
577,45.239,1
578,51.877,1
579,57.729,1
580,63.11,1
581,68.353,1
582,73.791,1
583,79.732,1
584,86.437,1
585,94.115,1
586,102.9,1
587,112.78,1
588,123.57,1
589,134.89,1
590,146.28,1
591,157.25,1
592,167.39,1
593,176.38,1
594,183.98,1
595,190.01,1
596,194.44,1
597,197.37,1
598,199.1,1
599,200,1
600,200.54,1
601,201.16,1
602,202.27,1
603,204.19,1
604,207.14,1
605,211.23,1
606,216.51,1
607,222.99,1
608,230.58,1
609,239.1,1
610,248.28,1
611,257.76,1
612,267.11,1
613,275.87,1
614,283.6,1
615,289.89,1
616,294.51,1
617,297.39,1
618,298.7,1
619,298.78,1
620,298.12,1
621,297.28,1
622,296.75,1
623,296.85,1
624,297.69,1
625,299.2,1
626,301.24,1
627,303.71,1
628,306.55,1
629,309.75,1
630,313.24,1
631,316.84,1
632,320.29,1
633,323.2,1
634,325.18,1
635,325.85,1
636,325.03,1
637,322.81,1
638,319.5,1
639,315.57,1
640,311.5,1
641,307.61,1
642,304.05,1
643,300.74,1
644,297.47,1
645,293.99,1
646,290.05,1
647,285.48,1
648,280.17,1
649,273.99,1
650,266.89,1
651,258.89,1
652,250.08,1
653,240.65,1
654,230.82,1
655,220.84,1
656,211.05,1
657,201.87,1
658,193.77,1
659,187.19,1
660,182.46,1
661,179.74,1
662,179.03,1
663,180.25,1
664,183.2,1
665,187.62,1
666,193.15,1
667,199.31,1
668,205.7,1
669,211.97,1
670,217.87,1
671,223.19,1
672,227.72,1
673,231.3,1
674,233.89,1
675,235.57,1
676,236.57,1
677,237.18,1
678,237.6,1
679,237.98,1
680,238.38,1
681,238.81,1
682,239.29,1
683,239.85,1
684,240.52,1
685,241.28,1
686,242.03,1
687,242.65,1
688,243.02,1
689,243.01,1
690,242.54,1
691,241.51,1
692,239.83,1
693,237.38,1
694,234.1,1
695,230.06,1
696,225.41,1
697,220.48,1
698,215.6,1
699,211.13,1
700,207.32,1
701,204.28,1
702,201.93,1
703,200.11,1
704,198.61,1
705,197.2,1
706,195.69,1
707,193.88,1
708,191.66,1
709,188.95,1
710,185.76,1
711,182.11,1
712,178.08,1
713,173.7,1
714,169.05,1
715,164.17,1
716,159.12,1
717,153.98,1
718,148.81,1
719,143.65,1
720,138.54,1
721,133.46,1
722,128.31,1
723,122.97,1
724,117.31,1
725,111.33,1
726,105.11,1
727,98.825,1
728,92.596,1
729,86.501,1
730,80.53,1
731,74.62,1
732,68.698,1
733,62.723,1
734,56.713,1
735,50.765,1
736,45.052,1
737,39.782,1
738,35.151,1
739,31.295,1
740,28.278,1
741,26.083,1
742,24.609,1
743,23.659,1
744,22.926,1
745,22.018,1
746,20.547,1
747,18.229,1
748,14.928,1
749,10.67,1
750,5.6243,1
751,0.090764,1
752,-5.517,1
753,-10.728,1
754,-15.096,1
755,-18.305,1
756,-20.268,1
757,-21.18,1
758,-21.469,1
759,-21.678,1
760,-22.329,1
761,-23.819,1
762,-26.365,1
763,-29.983,1
764,-34.517,1
765,-39.713,1
766,-45.304,1
767,-51.064,1
768,-56.824,1
769,-62.479,1
770,-68.004,1
771,-73.454,1
772,-78.911,1
773,-84.388,1
774,-89.765,1
775,-94.817,1
776,-99.29,1
777,-102.98,1
778,-105.81,1
779,-107.83,1
780,-109.26,1
781,-110.4,1
782,-111.58,1
783,-113.1,1
784,-115.09,1
785,-117.53,1
786,-120.29,1
787,-123.2,1
788,-126.1,1
789,-128.89,1
790,-131.52,1
791,-133.96,1
792,-136.14,1
793,-137.95,1
794,-139.21,1
795,-139.83,1
796,-139.73,1
797,-138.95,1
798,-137.62,1
799,-135.97,1
800,-134.3,1
801,-132.95,1
802,-132.19,1
803,-132.2,1
804,-133.03,1
805,-134.58,1
806,-136.69,1
807,-139.17,1
808,-141.85,1
809,-144.66,1
810,-147.57,1
811,-150.54,1
812,-153.45,1
813,-156.13,1
814,-158.4,1
815,-160.12,1
816,-161.15,1
817,-161.41,1
818,-160.89,1
819,-159.66,1
820,-157.93,1
821,-155.88,1
822,-153.72,1
823,-151.66,1
824,-149.92,1
825,-148.7,1
826,-148.18,1
827,-148.39,1
828,-149.25,1
829,-150.55,1
830,-151.99,1
831,-153.23,1
832,-153.95,1
833,-153.96,1
834,-153.17,1
835,-151.62,1
836,-149.48,1
837,-146.95,1
838,-144.31,1
839,-141.83,1
840,-139.71,1
841,-138.06,1
842,-136.87,1
843,-136.04,1
844,-135.47,1
845,-135.05,1
846,-134.69,1
847,-134.29,1
848,-133.83,1
849,-133.25,1
850,-132.48,1
851,-131.45,1
852,-130.08,1
853,-128.32,1
854,-126.2,1
855,-123.75,1
856,-121.01,1
857,-118.06,1
858,-115,1
859,-111.92,1
860,-108.92,1
861,-106.09,1
862,-103.55,1
863,-101.5,1
864,-100.18,1
865,-99.84,1
866,-100.68,1
867,-102.76,1
868,-106.01,1
869,-110.28,1
870,-115.38,1
871,-121.11,1
872,-127.19,1
873,-133.27,1
874,-138.91,1
875,-143.66,1
876,-147.1,1
877,-148.97,1
878,-149.2,1
879,-147.91,1
880,-145.34,1
881,-141.74,1
882,-137.32,1
883,-132.3,1
884,-126.89,1
885,-121.32,1
886,-115.71,1
887,-110.06,1
888,-104.19,1
889,-97.895,1
890,-90.958,1
891,-83.249,1
892,-74.75,1
893,-65.551,1
894,-55.814,1
895,-45.715,1
896,-35.416,1
897,-25.078,1
898,-14.884,1
899,-5.0476,1
900,4.1979,1
901,12.595,1
902,19.879,1
903,25.839,1
904,30.378,1
905,33.531,1
906,35.457,1
907,36.439,1
908,36.876,1
909,37.23,1
910,37.939,1
911,39.327,1
912,41.542,1
913,44.548,1
914,48.178,1
915,52.226,1
916,56.504,1
917,60.852,1
918,65.129,1
919,69.216,1
920,73.003,1
921,76.38,1
922,79.219,1
923,81.394,1
924,82.822,1
925,83.518,1
926,83.647,1
927,83.531,1
928,83.599,1
929,84.275,1
930,85.887,1
931,88.587,1
932,92.338,1
933,96.947,1
934,102.15,1
935,107.7,1
936,113.35,1
937,118.84,1
938,123.89,1
939,128.17,1
940,131.37,1
941,133.23,1
942,133.6,1
943,132.46,1
944,129.93,1
945,126.22,1
946,121.66,1
947,116.64,1
948,111.6,1
949,106.97,1
950,103.12,1
951,100.35,1
952,98.799,1
953,98.443,1
954,99.098,1
955,100.46,1
956,102.14,1
957,103.78,1
958,105.09,1
959,105.87,1
960,106.12,1
961,105.95,1
962,105.55,1
963,105.07,1
964,104.56,1
965,103.99,1
966,103.3,1
967,102.45,1
968,101.38,1
969,100.06,1
970,98.452,1
971,96.551,1
972,94.385,1
973,92.047,1
974,89.702,1
975,87.546,1
976,85.749,1
977,84.414,1
978,83.55,1
979,83.061,1
980,82.747,1
981,82.343,1
982,81.607,1
983,80.409,1
984,78.779,1
985,76.919,1
986,75.159,1
987,73.858,1
988,73.264,1
989,73.421,1
990,74.189,1
991,75.33,1
992,76.579,1
993,77.688,1
994,78.457,1
995,78.772,1
996,78.6,1
997,77.956,1
998,76.853,1
999,75.287,1
1000,73.251,1
1001,70.777,1
1002,67.977,1
1003,65.025,1
1004,62.104,1
1005,59.36,1
1006,56.879,1
1007,54.712,1
1008,52.888,1
1009,51.405,1
1010,50.183,1
1011,49.057,1
1012,47.816,1
1013,46.289,1
1014,44.426,1
1015,42.302,1
1016,40.063,1
1017,37.833,1
1018,35.648,1
1019,33.434,1
1020,31.048,1
1021,28.351,1
1022,25.283,1
1023,21.895,1
1024,18.368,1
1025,14.992,1
1026,12.133,1
1027,10.152,1
1028,9.3008,1
1029,9.6353,1
1030,10.985,1
1031,13.003,1
1032,15.271,1
1033,17.393,1
1034,19.035,1
1035,19.917,1
1036,19.796,1
1037,18.463,1
1038,15.773,1
1039,11.694,1
1040,6.3591,1
1041,0.083202,1
1042,-6.684,1
1043,-13.442,1
1044,-19.722,1
1045,-25.136,1
1046,-29.384,1
1047,-32.273,1
1048,-33.764,1
1049,-34.006,1
1050,-33.31,1
1051,-32.076,1
1052,-30.732,1
1053,-29.675,1
1054,-29.214,1
1055,-29.529,1
1056,-30.668,1
1057,-32.562,1
1058,-35.06,1
1059,-37.951,1
1060,-40.974,1
1061,-43.85,1
1062,-46.327,1
1063,-48.229,1
1064,-49.493,1
1065,-50.165,1
1066,-50.369,1
1067,-50.239,1
1068,-49.902,1
1069,-49.479,1
1070,-49.076,1
1071,-48.759,1
1072,-48.558,1
1073,-48.499,1
1074,-48.647,1
1075,-49.094,1
1076,-49.928,1
1077,-51.186,1
1078,-52.826,1
1079,-54.722,1
1080,-56.695,1
1081,-58.543,1
1082,-60.087,1
1083,-61.222,1
1084,-61.952,1
1085,-62.359,1
1086,-62.536,1
1087,-62.544,1
1088,-62.427,1
1089,-62.247,1
1090,-62.122,1
1091,-62.248,1
1092,-62.893,1
1093,-64.342,1
1094,-66.842,1
1095,-70.577,1
1096,-75.626,1
1097,-81.907,1
1098,-89.116,1
1099,-96.736,1
1100,-104.14,1
1101,-110.73,1
1102,-116,1
1103,-119.63,1
1104,-121.47,1
1105,-121.6,1
1106,-120.26,1
1107,-117.91,1
1108,-115.03,1
1109,-112.02,1
1110,-109.09,1
1111,-106.29,1
1112,-103.52,1
1113,-100.66,1
1114,-97.577,1
1115,-94.145,1
1116,-90.225,1
1117,-85.713,1
1118,-80.559,1
1119,-74.759,1
1120,-68.341,1
1121,-61.336,1
1122,-53.764,1
1123,-45.654,1
1124,-37.103,1
1125,-28.321,1
1126,-19.624,1
1127,-11.379,1
1128,-3.9436,1
1129,2.385,1
1130,7.3938,1
1131,10.994,1
1132,13.254,1
1133,14.388,1
1134,14.701,1
1135,14.541,1
1136,14.283,1
1137,14.292,1
1138,14.871,1
1139,16.186,1
1140,18.204,1
1141,20.688,1
1142,23.264,1
1143,25.56,1
1144,27.318,1
1145,28.471,1
1146,29.152,1
1147,29.636,1
1148,30.24,1
1149,31.214,1
1150,32.688,1
1151,34.644,1
1152,36.931,1
1153,39.301,1
1154,41.484,1
1155,43.253,1
1156,44.481,1
1157,45.171,1
1158,45.445,1
1159,45.505,1
1160,45.568,1
1161,45.797,1
1162,46.263,1
1163,46.936,1
1164,47.746,1
1165,48.632,1
1166,49.564,1
1167,50.513,1
1168,51.447,1
1169,52.329,1
1170,53.078,1
1171,53.514,1
1172,53.347,1
1173,52.241,1
1174,49.912,1
1175,46.231,1
1176,41.301,1
1177,35.469,1
1178,29.292,1
1179,23.441,1
1180,18.581,1
1181,15.248,1
1182,13.764,1
1183,14.208,1
1184,16.446,1
1185,20.204,1
1186,25.119,1
1187,30.733,1
1188,36.491,1
1189,41.766,1
1190,45.927,1
1191,48.428,1
1192,48.92,1
1193,47.343,1
1194,43.97,1
1195,39.363,1
1196,34.261,1
1197,29.43,1
1198,25.512,1
1199,22.911,1
1200,21.755,1
1201,21.906,1
1202,23.02,1
1203,24.64,1
1204,26.297,1
1205,27.578,1
1206,28.176,1
1207,27.907,1
1208,26.696,1
1209,24.547,1
1210,21.543,1
1211,17.862,1
1212,13.804,1
1213,9.7723,1
1214,6.2305,1
1215,3.6399,1
1216,2.3694,1
1217,2.5947,1
1218,4.2364,1
1219,6.9767,1
1220,10.345,1
1221,13.828,1
1222,16.972,1
1223,19.443,1
1224,21.051,1
1225,21.758,1
1226,21.672,1
1227,21.02,1
1228,20.049,1
1229,18.909,1
1230,17.596,1
1231,16.03,1
1232,14.159,1
1233,12.029,1
1234,9.7702,1
1235,7.5545,1
1236,5.5331,1
1237,3.7925,1
1238,2.3453,1
1239,1.1535,1
1240,0.15376,1
1241,-0.7169,1
1242,-1.4928,1
1243,-2.1657,1
1244,-2.6974,1
1245,-3.0348,1
1246,-3.1145,1
1247,-2.8874,1
1248,-2.3778,1
1249,-1.7259,1
1250,-1.1603,1
1251,-0.90816,1
1252,-1.1003,1
1253,-1.7213,1
1254,-2.6193,1
1255,-3.5511,1
1256,-4.2413,1
1257,-4.4546,1
1258,-4.0741,1
1259,-3.1294,1
1260,-1.7495,1
1261,-0.10101,1
1262,1.6279,1
1263,3.2222,1
1264,4.4524,1
1265,5.096,1
1266,4.9525,1
1267,3.8671,1
1268,1.7677,1
1269,-1.2933,1
1270,-5.1139,1
1271,-9.36,1
1272,-13.625,1
1273,-17.512,1
1274,-20.701,1
1275,-23.003,1
1276,-24.359,1
1277,-24.803,1
1278,-24.416,1
1279,-23.309,1
1280,-21.631,1
1281,-19.57,1
1282,-17.347,1
1283,-15.192,1
1284,-13.326,1
1285,-11.939,1
1286,-11.15,1
1287,-10.993,1
1288,-11.432,1
1289,-12.398,1
1290,-13.798,1
1291,-15.478,1
1292,-17.209,1
1293,-18.716,1
1294,-19.731,1
1295,-20.055,1
1296,-19.605,1
1297,-18.458,1
1298,-16.863,1
1299,-15.205,1
1300,-13.947,1
1301,-13.555,1
1302,-14.409,1
1303,-16.727,1
1304,-20.56,1
1305,-25.848,1
1306,-32.477,1
1307,-40.294,1
1308,-49.088,1
1309,-58.561,1
1310,-68.314,1
1311,-77.857,1
1312,-86.662,1
1313,-94.228,1
1314,-100.15,1
1315,-104.16,1
1316,-106.16,1
1317,-106.17,1
1318,-104.29,1
1319,-100.73,1
1320,-95.778,1
1321,-89.841,1
1322,-83.361,1
1323,-76.771,1
1324,-70.431,1
1325,-64.619,1
1326,-59.538,1
1327,-55.314,1
1328,-51.954,1
1329,-49.295,1
1330,-47.012,1
1331,-44.704,1
1332,-41.982,1
1333,-38.531,1
1334,-34.152,1
1335,-28.797,1
1336,-22.571,1
1337,-15.7,1
1338,-8.5026,1
1339,-1.3346,1
1340,5.4446,1
1341,11.497,1
1342,16.533,1
1343,20.353,1
1344,22.909,1
1345,24.318,1
1346,24.816,1
1347,24.672,1
1348,24.112,1
1349,23.305,1
1350,22.376,1
1351,21.447,1
1352,20.675,1
1353,20.266,1
1354,20.446,1
1355,21.403,1
1356,23.229,1
1357,25.875,1
1358,29.144,1
1359,32.745,1
1360,36.361,1
1361,39.707,1
1362,42.572,1
1363,44.835,1
1364,46.456,1
1365,47.45,1
1366,47.879,1
1367,47.867,1
1368,47.596,1
1369,47.263,1
1370,47.039,1
1371,47.066,1
1372,47.445,1
1373,48.225,1
1374,49.372,1
1375,50.76,1
1376,52.177,1
1377,53.355,1
1378,54.04,1
1379,54.071,1
1380,53.416,1
1381,52.152,1
1382,50.406,1
1383,48.309,1
1384,45.965,1
1385,43.474,1
1386,40.961,1
1387,38.595,1
1388,36.556,1
1389,34.983,1
1390,33.941,1
1391,33.42,1
1392,33.34,1
1393,33.546,1
1394,33.826,1
1395,33.94,1
1396,33.684,1
1397,32.953,1
1398,31.785,1
1399,30.335,1
1400,28.817,1
1401,27.42,1
1402,26.239,1
1403,25.278,1
1404,24.498,1
1405,23.87,1
1406,23.401,1
1407,23.116,1
1408,23.06,1
1409,23.293,1
1410,23.877,1
1411,24.851,1
1412,26.219,1
1413,27.947,1
1414,29.947,1
1415,32.093,1
1416,34.237,1
1417,36.224,1
1418,37.886,1
1419,39.031,1
1420,39.453,1
1421,38.969,1
1422,37.478,1
1423,35.012,1
1424,31.76,1
1425,28.028,1
1426,24.163,1
1427,20.476,1
1428,17.191,1
1429,14.424,1
1430,12.176,1
1431,10.381,1
1432,8.9566,1
1433,7.8517,1
1434,7.0566,1
1435,6.6004,1
1436,6.5327,1
1437,6.8923,1
1438,7.6745,1
1439,8.8031,1
1440,10.104,1
1441,11.293,1
1442,12.01,1
1443,11.919,1
1444,10.83,1
1445,8.7839,1
1446,6.0371,1
1447,2.9806,1
1448,0.039279,1
1449,-2.4097,1
1450,-4.0994,1
1451,-4.9108,1
1452,-4.8673,1
1453,-4.088,1
1454,-2.7398,1
1455,-1.0306,1
1456,0.76915,1
1457,2.3363,1
1458,3.364,1
1459,3.6382,1
1460,3.0716,1
1461,1.7098,1
1462,-0.26118,1
1463,-2.5328,1
1464,-4.7373,1
1465,-6.5356,1
1466,-7.7011,1
1467,-8.1828,1
1468,-8.124,1
1469,-7.8148,1
1470,-7.5917,1
1471,-7.7298,1
1472,-8.3834,1
1473,-9.6036,1
1474,-11.387,1
1475,-13.698,1
1476,-16.471,1
1477,-19.62,1
1478,-23.05,1
1479,-26.627,1
1480,-30.122,1
1481,-33.184,1
1482,-35.398,1
1483,-36.419,1
1484,-36.088,1
1485,-34.498,1
1486,-31.98,1
1487,-29.034,1
1488,-26.227,1
1489,-24.077,1
1490,-22.954,1
1491,-23.013,1
1492,-24.198,1
1493,-26.3,1
1494,-29.021,1
1495,-32.004,1
1496,-34.868,1
1497,-37.248,1
1498,-38.843,1
1499,-39.463,1
1500,-39.054,1
1501,-37.69,1
1502,-35.525,1
1503,-32.748,1
1504,-29.552,1
1505,-26.121,1
1506,-22.619,1
1507,-19.195,1
1508,-16.02,1
1509,-13.331,1
1510,-11.46,1
1511,-10.782,1
1512,-11.613,1
1513,-14.108,1
1514,-18.237,1
1515,-23.832,1
1516,-30.657,1
1517,-38.44,1
1518,-46.904,1
1519,-55.776,1
1520,-64.789,1
1521,-73.673,1
1522,-82.141,1
1523,-89.902,1
1524,-96.702,1
1525,-102.36,1
1526,-106.78,1
1527,-109.95,1
1528,-111.88,1
1529,-112.61,1
1530,-112.17,1
1531,-110.58,1
1532,-107.91,1
1533,-104.23,1
1534,-99.744,1
1535,-94.713,1
1536,-89.471,1
1537,-84.319,1
1538,-79.458,1
1539,-74.947,1
1540,-70.685,1
1541,-66.46,1
1542,-62.023,1
1543,-57.152,1
1544,-51.687,1
1545,-45.551,1
1546,-38.781,1
1547,-31.51,1
1548,-23.899,1
1549,-16.058,1
1550,-8.0515,1
1551,0.054188,1
1552,8.136,1
1553,16.004,1
1554,23.414,1
1555,30.094,1
1556,35.771,1
1557,40.204,1
1558,43.23,1
1559,44.825,1
1560,45.163,1
1561,44.615,1
1562,43.685,1
1563,42.884,1
1564,42.607,1
1565,43.062,1
1566,44.265,1
1567,46.075,1
1568,48.258,1
1569,50.546,1
1570,52.701,1
1571,54.549,1
1572,55.996,1
1573,57.015,1
1574,57.608,1
1575,57.794,1
1576,57.604,1
1577,57.092,1
1578,56.353,1
1579,55.552,1
1580,54.922,1
1581,54.704,1
1582,55.068,1
1583,56.084,1
1584,57.711,1
1585,59.789,1
1586,62.045,1
1587,64.148,1
1588,65.788,1
1589,66.715,1
1590,66.765,1
1591,65.865,1
1592,64.027,1
1593,61.311,1
1594,57.81,1
1595,53.685,1
1596,49.202,1
1597,44.722,1
1598,40.635,1
1599,37.288,1
1600,34.915,1
1601,33.602,1
1602,33.29,1
1603,33.815,1
1604,34.951,1
1605,36.445,1
1606,38.041,1
1607,39.507,1
1608,40.635,1
1609,41.257,1
1610,41.275,1
1611,40.67,1
1612,39.495,1
1613,37.841,1
1614,35.811,1
1615,33.506,1
1616,31.025,1
1617,28.488,1
1618,26.057,1
1619,23.911,1
1620,22.205,1
1621,21.032,1
1622,20.434,1
1623,20.404,1
1624,20.892,1
1625,21.806,1
1626,23.026,1
1627,24.412,1
1628,25.817,1
1629,27.111,1
1630,28.198,1
1631,28.99,1
1632,29.388,1
1633,29.292,1
1634,28.638,1
1635,27.439,1
1636,25.8,1
1637,23.916,1
1638,22.033,1
1639,20.381,1
1640,19.117,1
1641,18.304,1
1642,17.908,1
1643,17.822,1
1644,17.895,1
1645,17.962,1
1646,17.88,1
1647,17.569,1
1648,17.044,1
1649,16.424,1
1650,15.885,1
1651,15.574,1
1652,15.537,1
1653,15.709,1
1654,15.961,1
1655,16.167,1
1656,16.247,1
1657,16.177,1
1658,15.962,1
1659,15.632,1
1660,15.229,1
1661,14.779,1
1662,14.272,1
1663,13.677,1
1664,12.964,1
1665,12.099,1
1666,11.037,1
1667,9.7108,1
1668,8.0568,1
1669,6.0277,1
1670,3.5911,1
1671,0.72328,1
1672,-2.5802,1
1673,-6.2716,1
1674,-10.213,1
1675,-14.162,1
1676,-17.803,1
1677,-20.822,1
1678,-22.977,1
1679,-24.131,1
1680,-24.258,1
1681,-23.448,1
1682,-21.9,1
1683,-19.883,1
1684,-17.702,1
1685,-15.662,1
1686,-14.021,1
1687,-12.953,1
1688,-12.546,1
1689,-12.821,1
1690,-13.733,1
1691,-15.155,1
1692,-16.905,1
1693,-18.782,1
1694,-20.598,1
1695,-22.179,1
1696,-23.375,1
1697,-24.089,1
1698,-24.304,1
1699,-24.093,1
1700,-23.597,1
1701,-22.989,1
1702,-22.424,1
1703,-21.995,1
1704,-21.725,1
1705,-21.596,1
1706,-21.609,1
1707,-21.823,1
1708,-22.357,1
1709,-23.338,1
1710,-24.832,1
1711,-26.782,1
1712,-28.997,1
1713,-31.178,1
1714,-32.986,1
1715,-34.147,1
1716,-34.546,1
1717,-34.287,1
1718,-33.625,1
1719,-32.864,1
1720,-32.244,1
1721,-31.895,1
1722,-31.836,1
1723,-32.033,1
1724,-32.472,1
1725,-33.196,1
1726,-34.291,1
1727,-35.873,1
1728,-38.068,1
1729,-40.993,1
1730,-44.705,1
1731,-49.141,1
1732,-54.118,1
1733,-59.415,1
1734,-64.859,1
1735,-70.37,1
1736,-75.931,1
1737,-81.557,1
1738,-87.24,1
1739,-92.903,1
1740,-98.381,1
1741,-103.44,1
1742,-107.81,1
1743,-111.22,1
1744,-113.49,1
1745,-114.55,1
1746,-114.49,1
1747,-113.49,1
1748,-111.7,1
1749,-109.2,1
1750,-106,1
1751,-102.09,1
1752,-97.479,1
1753,-92.174,1
1754,-86.188,1
1755,-79.53,1
1756,-72.236,1
1757,-64.419,1
1758,-56.298,1
1759,-48.194,1
1760,-40.465,1
1761,-33.418,1
1762,-27.238,1
1763,-21.95,1
1764,-17.425,1
1765,-13.426,1
1766,-9.6838,1
1767,-5.9948,1
1768,-2.2736,1
1769,1.4793,1
1770,5.252,1
1771,9.064,1
1772,12.961,1
1773,16.995,1
1774,21.188,1
1775,25.506,1
1776,29.849,1
1777,34.075,1
1778,38.036,1
1779,41.605,1
1780,44.676,1
1781,47.176,1
1782,49.062,1
1783,50.316,1
1784,50.951,1
1785,51.02,1
1786,50.615,1
1787,49.835,1
1788,48.776,1
1789,47.561,1
1790,46.386,1
1791,45.516,1
1792,45.231,1
1793,45.725,1
1794,47.052,1
1795,49.107,1
1796,51.639,1
1797,54.303,1
1798,56.738,1
1799,58.645,1
1800,59.83,1
1801,60.194,1
1802,59.724,1
1803,58.505,1
1804,56.751,1
1805,54.785,1
1806,52.941,1
1807,51.449,1
1808,50.38,1
1809,49.656,1
1810,49.096,1
1811,48.493,1
1812,47.671,1
1813,46.53,1
1814,45.083,1
1815,43.473,1
1816,41.914,1
1817,40.6,1
1818,39.653,1
1819,39.112,1
1820,38.946,1
1821,39.049,1
1822,39.258,1
1823,39.403,1
1824,39.355,1
1825,39.067,1
1826,38.596,1
1827,38.094,1
1828,37.766,1
1829,37.813,1
1830,38.37,1
1831,39.465,1
1832,41.022,1
1833,42.864,1
1834,44.74,1
1835,46.379,1
1836,47.573,1
1837,48.228,1
1838,48.38,1
1839,48.154,1
1840,47.704,1
1841,47.165,1
1842,46.624,1
1843,46.084,1
1844,45.479,1
1845,44.711,1
1846,43.704,1
1847,42.43,1
1848,40.918,1
1849,39.268,1
1850,37.674,1
1851,36.382,1
1852,35.615,1
1853,35.499,1
1854,36.04,1
1855,37.133,1
1856,38.58,1
1857,40.113,1
1858,41.418,1
1859,42.19,1
1860,42.168,1
1861,41.168,1
1862,39.102,1
1863,36.013,1
1864,32.086,1
1865,27.646,1
1866,23.124,1
1867,18.98,1
1868,15.603,1
1869,13.237,1
1870,11.946,1
1871,11.641,1
1872,12.129,1
1873,13.167,1
1874,14.474,1
1875,15.759,1
1876,16.758,1
1877,17.272,1
1878,17.195,1
1879,16.514,1
1880,15.289,1
1881,13.625,1
1882,11.656,1
1883,9.5225,1
1884,7.3555,1
1885,5.2517,1
1886,3.2381,1
1887,1.261,1
1888,-0.77073,1
1889,-2.9257,1
1890,-5.2218,1
1891,-7.6402,1
1892,-10.152,1
1893,-12.731,1
1894,-15.351,1
1895,-17.972,1
1896,-20.539,1
1897,-22.984,1
1898,-25.216,1
1899,-27.125,1
1900,-28.609,1
1901,-29.592,1
1902,-30.045,1
1903,-29.997,1
1904,-29.515,1
1905,-28.685,1
1906,-27.585,1
1907,-26.298,1
1908,-24.937,1
1909,-23.656,1
1910,-22.651,1
1911,-22.127,1
1912,-22.243,1
1913,-23.083,1
1914,-24.64,1
1915,-26.822,1
1916,-29.476,1
1917,-32.423,1
1918,-35.475,1
1919,-38.428,1
1920,-41.04,1
1921,-43.039,1
1922,-44.168,1
1923,-44.229,1
1924,-43.128,1
1925,-40.891,1
1926,-37.651,1
1927,-33.628,1
1928,-29.128,1
1929,-24.551,1
1930,-20.347,1
1931,-16.968,1
1932,-14.794,1
1933,-14.071,1
1934,-14.879,1
1935,-17.125,1
1936,-20.587,1
1937,-24.954,1
1938,-29.879,1
1939,-35.014,1
1940,-40.05,1
1941,-44.759,1
1942,-49.044,1
1943,-52.943,1
1944,-56.603,1
1945,-60.211,1
1946,-63.926,1
1947,-67.847,1
1948,-72.018,1
1949,-76.455,1
1950,-81.174,1
1951,-86.175,1
1952,-91.4,1
1953,-96.707,1
1954,-101.89,1
1955,-106.72,1
1956,-111.02,1
1957,-114.7,1
1958,-117.7,1
1959,-120.01,1
1960,-121.61,1
1961,-122.42,1
1962,-122.29,1
1963,-121.05,1
1964,-118.57,1
1965,-114.77,1
1966,-109.72,1
1967,-103.55,1
1968,-96.505,1
1969,-88.881,1
1970,-80.994,1
1971,-73.139,1
1972,-65.577,1
1973,-58.519,1
1974,-52.091,1
1975,-46.299,1
1976,-41.051,1
1977,-36.208,1
1978,-31.602,1
1979,-27.01,1
1980,-22.156,1
1981,-16.783,1
1982,-10.754,1
1983,-4.0843,1
1984,3.0884,1
1985,10.558,1
1986,18.09,1
1987,25.435,1
1988,32.328,1
1989,38.507,1
1990,43.759,1
1991,47.966,1
1992,51.12,1
1993,53.303,1
1994,54.616,1
1995,55.12,1
1996,54.816,1
1997,53.687,1
1998,51.773,1
1999,49.244,1
2000,46.443,1
2001,43.851,1
2002,41.989,1
2003,41.275,1
2004,41.946,1
2005,44.039,1
2006,47.4,1
2007,51.708,1
2008,56.517,1
2009,61.321,1
2010,65.638,1
2011,69.081,1
2012,71.399,1
2013,72.479,1
2014,72.326,1
2015,71.047,1
2016,68.855,1
2017,66.049,1
2018,62.97,1
2019,59.925,1
2020,57.162,1
2021,54.872,1
2022,53.194,1
2023,52.205,1
2024,51.899,1
2025,52.198,1
2026,52.958,1
2027,53.994,1
2028,55.103,1
2029,56.097,1
2030,56.813,1
2031,57.113,1
2032,56.882,1
2033,56.032,1
2034,54.528,1
2035,52.395,1
2036,49.736,1
2037,46.731,1
2038,43.623,1
2039,40.674,1
2040,38.11,1
2041,36.071,1
2042,34.609,1
2043,33.697,1
2044,33.265,1
2045,33.232,1
2046,33.537,1
2047,34.133,1
2048,34.953,1
2049,35.89,1
2050,36.796,1
2051,37.537,1
2052,38.045,1
2053,38.345,1
2054,38.524,1
2055,38.681,1
2056,38.894,1
2057,39.216,1
2058,39.675,1
2059,40.285,1
2060,41.067,1
2061,42.035,1
2062,43.164,1
2063,44.367,1
2064,45.504,1
2065,46.421,1
2066,47.013,1
2067,47.234,1
2068,47.069,1
2069,46.513,1
2070,45.569,1
2071,44.268,1
2072,42.657,1
2073,40.779,1
2074,38.66,1
2075,36.341,1
2076,33.915,1
2077,31.54,1
2078,29.4,1
2079,27.658,1
2080,26.437,1
2081,25.815,1
2082,25.822,1
2083,26.392,1
2084,27.338,1
2085,28.375,1
2086,29.191,1
2087,29.51,1
2088,29.14,1
2089,27.985,1
2090,26.043,1
2091,23.367,1
2092,20.049,1
2093,16.213,1
2094,12.032,1
2095,7.7372,1
2096,3.6205,1
2097,-0.013638,1
2098,-2.9159,1
2099,-4.95,1
2100,-6.1143,1
2101,-6.5374,1
2102,-6.455,1
2103,-6.1645,1
2104,-5.9689,1
2105,-6.1342,1
2106,-6.8559,1
2107,-8.2258,1
2108,-10.223,1
2109,-12.755,1
2110,-15.709,1
2111,-18.988,1
2112,-22.491,1
2113,-26.088,1
2114,-29.603,1
2115,-32.838,1
2116,-35.597,1
2117,-37.702,1
2118,-39.029,1
2119,-39.557,1
2120,-39.391,1
2121,-38.739,1
2122,-37.854,1
2123,-36.962,1
2124,-36.21,1
2125,-35.662,1
2126,-35.338,1
2127,-35.241,1
2128,-35.332,1
2129,-35.505,1
2130,-35.588,1
2131,-35.389,1
2132,-34.747,1
2133,-33.567,1
2134,-31.849,1
2135,-29.697,1
2136,-27.297,1
2137,-24.871,1
2138,-22.624,1
2139,-20.721,1
2140,-19.304,1
2141,-18.491,1
2142,-18.372,1
2143,-18.991,1
2144,-20.355,1
2145,-22.461,1
2146,-25.312,1
2147,-28.912,1
2148,-33.233,1
2149,-38.197,1
2150,-43.685,1
2151,-49.558,1
2152,-55.666,1
2153,-61.853,1
2154,-67.964,1
2155,-73.854,1
2156,-79.382,1
2157,-84.427,1
2158,-88.908,1
2159,-92.808,1
2160,-96.181,1
2161,-99.158,1
2162,-101.94,1
2163,-104.79,1
2164,-107.94,1
2165,-111.55,1
2166,-115.65,1
2167,-120.17,1
2168,-124.88,1
2169,-129.49,1
2170,-133.65,1
2171,-136.97,1
2172,-139.06,1
2173,-139.55,1
2174,-138.15,1
2175,-134.75,1
2176,-129.38,1
2177,-122.24,1
2178,-113.67,1
2179,-104.1,1
2180,-93.992,1
2181,-83.835,1
2182,-74.119,1
2183,-65.27,1
2184,-57.582,1
2185,-51.161,1
2186,-45.911,1
2187,-41.593,1
2188,-37.895,1
2189,-34.477,1
2190,-30.963,1
2191,-26.956,1
2192,-22.107,1
2193,-16.21,1
2194,-9.2771,1
2195,-1.5537,1
2196,6.5226,1
2197,14.418,1
2198,21.628,1
2199,27.798,1
2200,32.784,1
2201,36.625,1
2202,39.452,1
2203,41.425,1
2204,42.722,1
2205,43.556,1
2206,44.183,1
2207,44.878,1
2208,45.901,1
2209,47.43,1
2210,49.524,1
2211,52.123,1
2212,55.098,1
2213,58.304,1
2214,61.616,1
2215,64.925,1
2216,68.111,1
2217,71.029,1
2218,73.532,1
2219,75.493,1
2220,76.817,1
2221,77.457,1
2222,77.428,1
2223,76.806,1
2224,75.701,1
2225,74.238,1
2226,72.528,1
2227,70.657,1
2228,68.694,1
2229,66.702,1
2230,64.75,1
2231,62.929,1
2232,61.345,1
2233,60.093,1
2234,59.216,1
2235,58.706,1
2236,58.511,1
2237,58.569,1
2238,58.822,1
2239,59.203,1
2240,59.606,1
2241,59.881,1
2242,59.873,1
2243,59.492,1
2244,58.773,1
2245,57.877,1
2246,57.025,1
2247,56.423,1
2248,56.21,1
2249,56.436,1
2250,57.079,1
2251,58.071,1
2252,59.304,1
2253,60.623,1
2254,61.831,1
2255,62.721,1
2256,63.127,1
2257,62.955,1
2258,62.168,1
2259,60.766,1
2260,58.797,1
2261,56.385,1
2262,53.738,1
2263,51.118,1
2264,48.791,1
2265,46.998,1
2266,45.916,1
2267,45.628,1
2268,46.089,1
2269,47.113,1
2270,48.38,1
2271,49.485,1
2272,50.009,1
2273,49.606,1
2274,48.08,1
2275,45.429,1
2276,41.834,1
2277,37.61,1
2278,33.156,1
2279,28.92,1
2280,25.353,1
2281,22.844,1
2282,21.64,1
2283,21.808,1
2284,23.216,1
2285,25.555,1
2286,28.387,1
2287,31.215,1
2288,33.561,1
2289,35.022,1
2290,35.307,1
2291,34.268,1
2292,31.923,1
2293,28.466,1
2294,24.252,1
2295,19.748,1
2296,15.443,1
2297,11.755,1
2298,8.9316,1
2299,6.9895,1
2300,5.7144,1
2301,4.7419,1
2302,3.6984,1
2303,2.316,1
2304,0.48501,1
2305,-1.727,1
2306,-4.0914,1
2307,-6.3017,1
2308,-8.0974,1
2309,-9.3573,1
2310,-10.113,1
2311,-10.493,1
2312,-10.655,1
2313,-10.742,1
2314,-10.883,1
2315,-11.196,1
2316,-11.784,1
2317,-12.722,1
2318,-14.059,1
2319,-15.815,1
2320,-17.946,1
2321,-20.315,1
2322,-22.691,1
2323,-24.816,1
2324,-26.457,1
2325,-27.439,1
2326,-27.646,1
2327,-27.03,1
2328,-25.653,1
2329,-23.714,1
2330,-21.539,1
2331,-19.507,1
2332,-17.961,1
2333,-17.134,1
2334,-17.137,1
2335,-17.978,1
2336,-19.601,1
2337,-21.916,1
2338,-24.815,1
2339,-28.142,1
2340,-31.652,1
2341,-34.995,1
2342,-37.763,1
2343,-39.583,1
2344,-40.189,1
2345,-39.488,1
2346,-37.588,1
2347,-34.819,1
2348,-31.695,1
2349,-28.807,1
2350,-26.732,1
2351,-25.971,1
2352,-26.931,1
2353,-29.893,1
2354,-34.97,1
2355,-42.103,1
2356,-51.112,1
2357,-61.746,1
2358,-73.684,1
2359,-86.459,1
2360,-99.405,1
2361,-111.7,1
2362,-122.53,1
2363,-131.2,1
2364,-137.35,1
2365,-140.93,1
2366,-142.23,1
2367,-141.81,1
2368,-140.35,1
2369,-138.52,1
2370,-136.86,1
2371,-135.67,1
2372,-135.06,1
2373,-134.95,1
2374,-135.17,1
2375,-135.51,1
2376,-135.76,1
2377,-135.69,1
2378,-135.08,1
2379,-133.65,1
2380,-131.16,1
2381,-127.39,1
2382,-122.17,1
2383,-115.42,1
2384,-107.15,1
2385,-97.54,1
2386,-86.941,1
2387,-75.796,1
2388,-64.552,1
2389,-53.568,1
2390,-43.093,1
2391,-33.295,1
2392,-24.295,1
2393,-16.172,1
2394,-8.9589,1
2395,-2.6196,1
2396,2.9481,1
2397,7.8918,1
2398,12.387,1
2399,16.631,1
2400,20.837,1
2401,25.198,1
2402,29.85,1
2403,34.829,1
2404,40.051,1
2405,45.317,1
2406,50.359,1
2407,54.93,1
2408,58.897,1
2409,62.245,1
2410,65.004,1
2411,67.172,1
2412,68.69,1
2413,69.473,1
2414,69.464,1
2415,68.683,1
2416,67.266,1
2417,65.452,1
2418,63.547,1
2419,61.876,1
2420,60.746,1
2421,60.41,1
2422,61.023,1
2423,62.589,1
2424,64.947,1
2425,67.824,1
2426,70.89,1
2427,73.797,1
2428,76.212,1
2429,77.861,1
2430,78.57,1
2431,78.289,1
2432,77.078,1
2433,75.059,1
2434,72.394,1
2435,69.278,1
2436,65.964,1
2437,62.768,1
2438,60.023,1
2439,57.996,1
2440,56.807,1
2441,56.406,1
2442,56.598,1
2443,57.081,1
2444,57.507,1
2445,57.56,1
2446,57.042,1
2447,55.931,1
2448,54.351,1
2449,52.512,1
2450,50.644,1
2451,48.953,1
2452,47.605,1
2453,46.716,1
2454,46.356,1
2455,46.554,1
2456,47.303,1
2457,48.56,1
2458,50.266,1
2459,52.349,1
2460,54.732,1
2461,57.322,1
2462,60.004,1
2463,62.639,1
2464,65.067,1
2465,67.121,1
2466,68.653,1
2467,69.556,1
2468,69.767,1
2469,69.268,1
2470,68.076,1
2471,66.254,1
2472,63.906,1
2473,61.162,1
2474,58.19,1
2475,55.194,1
2476,52.405,1
2477,50.031,1
2478,48.236,1
2479,47.118,1
2480,46.682,1
2481,46.83,1
2482,47.373,1
2483,48.057,1
2484,48.601,1
2485,48.757,1
2486,48.362,1
2487,47.359,1
2488,45.78,1
2489,43.714,1
2490,41.274,1
2491,38.555,1
2492,35.637,1
2493,32.607,1
2494,29.595,1
2495,26.769,1
2496,24.311,1
2497,22.363,1
2498,20.97,1
2499,20.056,1
2500,19.466,1
2501,19.052,1
2502,18.716,1
2503,18.385,1
2504,17.983,1
2505,17.414,1
2506,16.562,1
2507,15.306,1
2508,13.551,1
2509,11.273,1
2510,8.5396,1
2511,5.4949,1
2512,2.3095,1
2513,-0.85802,1
2514,-3.8765,1
2515,-6.6385,1
2516,-9.0534,1
2517,-11.053,1
2518,-12.607,1
2519,-13.728,1
2520,-14.475,1
2521,-14.958,1
2522,-15.346,1
2523,-15.856,1
2524,-16.693,1
2525,-17.988,1
2526,-19.762,1
2527,-21.953,1
2528,-24.467,1
2529,-27.22,1
2530,-30.114,1
2531,-32.998,1
2532,-35.666,1
2533,-37.912,1
2534,-39.581,1
2535,-40.587,1
2536,-40.934,1
2537,-40.758,1
2538,-40.334,1
2539,-40.017,1
2540,-40.146,1
2541,-40.98,1
2542,-42.688,1
2543,-45.362,1
2544,-49.024,1
2545,-53.621,1
2546,-59.035,1
2547,-65.11,1
2548,-71.693,1
2549,-78.65,1
2550,-85.869,1
2551,-93.264,1
2552,-100.74,1
2553,-108.19,1
2554,-115.42,1
2555,-122.23,1
2556,-128.42,1
2557,-133.9,1
2558,-138.65,1
2559,-142.79,1
2560,-146.48,1
2561,-149.91,1
2562,-153.25,1
2563,-156.58,1
2564,-159.92,1
2565,-163.18,1
2566,-166.19,1
2567,-168.75,1
2568,-170.7,1
2569,-171.93,1
2570,-172.4,1
2571,-172.07,1
2572,-170.86,1
2573,-168.56,1
2574,-164.93,1
2575,-159.81,1
2576,-153.14,1
2577,-145.08,1
2578,-135.93,1
2579,-126.06,1
2580,-115.87,1
2581,-105.67,1
2582,-95.749,1
2583,-86.344,1
2584,-77.606,1
2585,-69.612,1
2586,-62.377,1
2587,-55.879,1
2588,-50.05,1
2589,-44.755,1
2590,-39.793,1
2591,-34.904,1
2592,-29.788,1
2593,-24.144,1
2594,-17.733,1
2595,-10.437,1
2596,-2.306,1
2597,6.4264,1
2598,15.376,1
2599,24.106,1
2600,32.244,1
2601,39.533,1
2602,45.838,1
2603,51.107,1
2604,55.367,1
2605,58.732,1
2606,61.399,1
2607,63.607,1
2608,65.593,1
2609,67.562,1
2610,69.659,1
2611,71.957,1
2612,74.463,1
2613,77.152,1
2614,79.993,1
2615,82.954,1
2616,85.965,1
2617,88.912,1
2618,91.66,1
2619,94.091,1
2620,96.139,1
2621,97.782,1
2622,99.025,1
2623,99.863,1
2624,100.26,1
2625,100.16,1
2626,99.47,1
2627,98.098,1
2628,96.038,1
2629,93.397,1
2630,90.377,1
2631,87.223,1
2632,84.187,1
2633,81.489,1
2634,79.268,1
2635,77.543,1
2636,76.205,1
2637,75.059,1
2638,73.909,1
2639,72.63,1
2640,71.182,1
2641,69.599,1
2642,67.94,1
2643,66.275,1
2644,64.689,1
2645,63.305,1
2646,62.294,1
2647,61.826,1
2648,62.022,1
2649,62.924,1
2650,64.49,1
2651,66.578,1
2652,68.953,1
2653,71.329,1
2654,73.448,1
2655,75.151,1
2656,76.404,1
2657,77.261,1
2658,77.812,1
2659,78.133,1
2660,78.271,1
2661,78.232,1
2662,77.994,1
2663,77.528,1
2664,76.806,1
2665,75.802,1
2666,74.499,1
2667,72.941,1
2668,71.253,1
2669,69.626,1
2670,68.259,1
2671,67.284,1
2672,66.693,1
2673,66.321,1
2674,65.931,1
2675,65.336,1
2676,64.48,1
2677,63.419,1
2678,62.241,1
2679,60.986,1
2680,59.622,1
2681,58.066,1
2682,56.234,1
2683,54.097,1
2684,51.704,1
2685,49.176,1
2686,46.682,1
2687,44.404,1
2688,42.485,1
2689,40.97,1
2690,39.76,1
2691,38.621,1
2692,37.274,1
2693,35.49,1
2694,33.181,1
2695,30.422,1
2696,27.416,1
2697,24.419,1
2698,21.667,1
2699,19.297,1
2700,17.31,1
2701,15.59,1
2702,13.977,1
2703,12.339,1
2704,10.624,1
2705,8.8635,1
2706,7.129,1
2707,5.4659,1
2708,3.8413,1
2709,2.1455,1
2710,0.22884,1
2711,-2.0545,1
2712,-4.8123,1
2713,-8.089,1
2714,-11.848,1
2715,-15.969,1
2716,-20.289,1
2717,-24.643,1
2718,-28.906,1
2719,-32.977,1
2720,-36.76,1
2721,-40.146,1
2722,-43.032,1
2723,-45.364,1
2724,-47.174,1
2725,-48.595,1
2726,-49.826,1
2727,-51.075,1
2728,-52.496,1
2729,-54.18,1
2730,-56.146,1
2731,-58.333,1
2732,-60.603,1
2733,-62.762,1
2734,-64.598,1
2735,-65.935,1
2736,-66.681,1
2737,-66.889,1
2738,-66.771,1
2739,-66.66,1
2740,-66.928,1
2741,-67.935,1
2742,-69.982,1
2743,-73.263,1
2744,-77.832,1
2745,-83.625,1
2746,-90.502,1
2747,-98.283,1
2748,-106.75,1
2749,-115.67,1
2750,-124.81,1
2751,-133.96,1
2752,-142.92,1
2753,-151.51,1
2754,-159.58,1
2755,-167.09,1
2756,-174.02,1
2757,-180.42,1
2758,-186.34,1
2759,-191.81,1
2760,-196.86,1
2761,-201.37,1
2762,-205.08,1
2763,-207.57,1
2764,-208.37,1
2765,-207.04,1
2766,-203.29,1
2767,-197.05,1
2768,-188.49,1
2769,-178.01,1
2770,-166.18,1
2771,-153.65,1
2772,-141.09,1
2773,-129.1,1
2774,-118.14,1
2775,-108.49,1
2776,-100.2,1
2777,-93.092,1
2778,-86.785,1
2779,-80.824,1
2780,-74.785,1
2781,-68.353,1
2782,-61.341,1
2783,-53.647,1
2784,-45.235,1
2785,-36.164,1
2786,-26.631,1
2787,-16.954,1
2788,-7.5009,1
2789,1.3861,1
2790,9.4392,1
2791,16.487,1
2792,22.474,1
2793,27.472,1
2794,31.647,1
2795,35.187,1
2796,38.255,1
2797,41.007,1
2798,43.635,1
2799,46.383,1
2800,49.511,1
2801,53.241,1
2802,57.69,1
2803,62.848,1
2804,68.581,1
2805,74.669,1
2806,80.852,1
2807,86.879,1
2808,92.535,1
2809,97.652,1
2810,102.1,1
2811,105.8,1
2812,108.73,1
2813,110.85,1
2814,112.17,1
2815,112.61,1
2816,112.14,1
2817,110.76,1
2818,108.6,1
2819,105.92,1
2820,103.09,1
2821,100.48,1
2822,98.446,1
2823,97.192,1
2824,96.789,1
2825,97.164,1
2826,98.129,1
2827,99.441,1
2828,100.86,1
2829,102.19,1
2830,103.27,1
2831,104.04,1
2832,104.43,1
2833,104.34,1
2834,103.64,1
2835,102.26,1
2836,100.22,1
2837,97.679,1
2838,94.868,1
2839,92.057,1
2840,89.485,1
2841,87.353,1
2842,85.848,1
2843,85.129,1
2844,85.273,1
2845,86.215,1
2846,87.744,1
2847,89.54,1
2848,91.259,1
2849,92.611,1
2850,93.402,1
2851,93.516,1
2852,92.879,1
2853,91.455,1
2854,89.297,1
2855,86.571,1
2856,83.528,1
2857,80.461,1
2858,77.671,1
2859,75.427,1
2860,73.898,1
2861,73.104,1
2862,72.924,1
2863,73.156,1
2864,73.598,1
2865,74.09,1
2866,74.533,1
2867,74.888,1
2868,75.123,1
2869,75.152,1
2870,74.802,1
2871,73.846,1
2872,72.094,1
2873,69.511,1
2874,66.273,1
2875,62.712,1
2876,59.191,1
2877,55.987,1
2878,53.235,1
2879,50.924,1
2880,48.934,1
2881,47.08,1
2882,45.16,1
2883,43.01,1
2884,40.564,1
2885,37.879,1
2886,35.122,1
2887,32.505,1
2888,30.182,1
2889,28.161,1
2890,26.277,1
2891,24.257,1
2892,21.831,1
2893,18.826,1
2894,15.202,1
2895,11.024,1
2896,6.4152,1
2897,1.5385,1
2898,-3.3925,1
2899,-8.1335,1
2900,-12.46,1
2901,-16.218,1
2902,-19.327,1
2903,-21.747,1
2904,-23.447,1
2905,-24.425,1
2906,-24.759,1
2907,-24.645,1
2908,-24.362,1
2909,-24.225,1
2910,-24.532,1
2911,-25.525,1
2912,-27.357,1
2913,-30.064,1
2914,-33.572,1
2915,-37.709,1
2916,-42.223,1
2917,-46.803,1
2918,-51.12,1
2919,-54.883,1
2920,-57.877,1
2921,-59.986,1
2922,-61.174,1
2923,-61.465,1
2924,-60.943,1
2925,-59.764,1
2926,-58.172,1
2927,-56.487,1
2928,-55.06,1
2929,-54.197,1
2930,-54.088,1
2931,-54.797,1
2932,-56.292,1
2933,-58.498,1
2934,-61.361,1
2935,-64.878,1
2936,-69.094,1
2937,-74.068,1
2938,-79.84,1
2939,-86.402,1
2940,-93.684,1
2941,-101.56,1
2942,-109.87,1
2943,-118.46,1
2944,-127.22,1
2945,-136.09,1
2946,-145.04,1
2947,-154.06,1
2948,-163.15,1
2949,-172.31,1
2950,-181.45,1
2951,-190.39,1
2952,-198.89,1
2953,-206.65,1
2954,-213.44,1
2955,-219.06,1
2956,-223.41,1
2957,-226.43,1
2958,-228.09,1
2959,-228.41,1
2960,-227.43,1
2961,-225.21,1
2962,-221.82,1
2963,-217.3,1
2964,-211.7,1
2965,-205.04,1
2966,-197.38,1
2967,-188.81,1
2968,-179.46,1
2969,-169.47,1
2970,-158.94,1
2971,-147.91,1
2972,-136.35,1
2973,-124.23,1
2974,-111.56,1
2975,-98.521,1
2976,-85.412,1
2977,-72.673,1
2978,-60.762,1
2979,-50.01,1
2980,-40.535,1
2981,-32.23,1
2982,-24.846,1
2983,-18.078,1
2984,-11.637,1
2985,-5.3065,1
2986,1.0371,1
2987,7.4288,1
2988,13.835,1
2989,20.191,1
2990,26.455,1
2991,32.638,1
2992,38.795,1
2993,44.973,1
2994,51.181,1
2995,57.383,1
2996,63.522,1
2997,69.534,1
2998,75.334,1
2999,80.806,1
3000,85.828,1
3001,90.304,1
3002,94.19,1
3003,97.504,1
3004,100.33,1
3005,102.8,1
3006,105.08,1
3007,107.32,1
3008,109.58,1
3009,111.85,1
3010,114.04,1
3011,116.04,1
3012,117.74,1
3013,119.05,1
3014,119.97,1
3015,120.47,1
3016,120.6,1
3017,120.44,1
3018,120.12,1
3019,119.75,1
3020,119.4,1
3021,119.08,1
3022,118.79,1
3023,118.56,1
3024,118.4,1
3025,118.28,1
3026,118.11,1
3027,117.73,1
3028,116.98,1
3029,115.76,1
3030,114.06,1
3031,111.96,1
3032,109.63,1
3033,107.25,1
3034,105.05,1
3035,103.25,1
3036,102.04,1
3037,101.57,1
3038,101.87,1
3039,102.95,1
3040,104.69,1
3041,106.96,1
3042,109.53,1
3043,112.12,1
3044,114.37,1
3045,115.94,1
3046,116.57,1
3047,116.14,1
3048,114.66,1
3049,112.36,1
3050,109.53,1
3051,106.49,1
3052,103.51,1
3053,100.75,1
3054,98.304,1
3055,96.18,1
3056,94.365,1
3057,92.827,1
3058,91.5,1
3059,90.28,1
3060,89.043,1
3061,87.688,1
3062,86.149,1
3063,84.392,1
3064,82.428,1
3065,80.301,1
3066,78.079,1
3067,75.846,1
3068,73.705,1
3069,71.757,1
3070,70.077,1
3071,68.673,1
3072,67.474,1
3073,66.358,1
3074,65.21,1
3075,63.933,1
3076,62.45,1
3077,60.69,1
3078,58.616,1
3079,56.23,1
3080,53.576,1
3081,50.688,1
3082,47.549,1
3083,44.087,1
3084,40.219,1
3085,35.909,1
3086,31.2,1
3087,26.205,1
3088,21.065,1
3089,15.912,1
3090,10.855,1
3091,6.0204,1
3092,1.5696,1
3093,-2.3216,1
3094,-5.5234,1
3095,-8.0096,1
3096,-9.8743,1
3097,-11.302,1
3098,-12.53,1
3099,-13.813,1
3100,-15.396,1
3101,-17.476,1
3102,-20.168,1
3103,-23.457,1
3104,-27.155,1
3105,-30.899,1
3106,-34.242,1
3107,-36.815,1
3108,-38.436,1
3109,-39.141,1
3110,-39.145,1
3111,-38.753,1
3112,-38.259,1
3113,-37.899,1
3114,-37.881,1
3115,-38.422,1
3116,-39.713,1
3117,-41.864,1
3118,-44.869,1
3119,-48.635,1
3120,-53.031,1
3121,-57.893,1
3122,-62.991,1
3123,-67.995,1
3124,-72.508,1
3125,-76.131,1
3126,-78.545,1
3127,-79.568,1
3128,-79.2,1
3129,-77.632,1
3130,-75.207,1
3131,-72.357,1
3132,-69.547,1
3133,-67.228,1
3134,-65.779,1
3135,-65.467,1
3136,-66.453,1
3137,-68.828,1
3138,-72.641,1
3139,-77.897,1
3140,-84.554,1
3141,-92.505,1
3142,-101.57,1
3143,-111.5,1
3144,-121.96,1
3145,-132.61,1
3146,-143.16,1
3147,-153.33,1
3148,-162.93,1
3149,-171.79,1
3150,-179.82,1
3151,-187.03,1
3152,-193.44,1
3153,-199.14,1
3154,-204.18,1
3155,-208.6,1
3156,-212.41,1
3157,-215.6,1
3158,-218.18,1
3159,-220.15,1
3160,-221.49,1
3161,-222.1,1
3162,-221.82,1
3163,-220.46,1
3164,-217.81,1
3165,-213.7,1
3166,-208.03,1
3167,-200.8,1
3168,-192.06,1
3169,-181.88,1
3170,-170.45,1
3171,-158.05,1
3172,-145.08,1
3173,-131.99,1
3174,-119.24,1
3175,-107.23,1
3176,-96.2,1
3177,-86.216,1
3178,-77.228,1
3179,-69.106,1
3180,-61.71,1
3181,-54.917,1
3182,-48.617,1
3183,-42.655,1
3184,-36.801,1
3185,-30.769,1
3186,-24.297,1
3187,-17.204,1
3188,-9.4308,1
3189,-1.0394,1
3190,7.7964,1
3191,16.823,1
3192,25.743,1
3193,34.248,1
3194,42.059,1
3195,48.932,1
3196,54.684,1
3197,59.229,1
3198,62.637,1
3199,65.141,1
3200,67.111,1
3201,69.001,1
3202,71.26,1
3203,74.229,1
3204,78.076,1
3205,82.794,1
3206,88.229,1
3207,94.089,1
3208,99.966,1
3209,105.42,1
3210,110.07,1
3211,113.67,1
3212,116.1,1
3213,117.34,1
3214,117.47,1
3215,116.58,1
3216,114.79,1
3217,112.23,1
3218,109.06,1
3219,105.54,1
3220,101.97,1
3221,98.654,1
3222,95.848,1
3223,93.748,1
3224,92.49,1
3225,92.16,1
3226,92.78,1
3227,94.265,1
3228,96.415,1
3229,98.942,1
3230,101.52,1
3231,103.86,1
3232,105.71,1
3233,106.84,1
3234,107.09,1
3235,106.33,1
3236,104.55,1
3237,101.91,1
3238,98.767,1
3239,95.58,1
3240,92.816,1
3241,90.867,1
3242,90.01,1
3243,90.402,1
3244,92.073,1
3245,94.917,1
3246,98.685,1
3247,103.01,1
3248,107.49,1
3249,111.71,1
3250,115.31,1
3251,118,1
3252,119.52,1
3253,119.73,1
3254,118.64,1
3255,116.34,1
3256,112.98,1
3257,108.81,1
3258,104.15,1
3259,99.367,1
3260,94.824,1
3261,90.828,1
3262,87.616,1
3263,85.351,1
3264,84.094,1
3265,83.76,1
3266,84.135,1
3267,84.903,1
3268,85.676,1
3269,86.034,1
3270,85.598,1
3271,84.114,1
3272,81.52,1
3273,77.951,1
3274,73.674,1
3275,69.007,1
3276,64.259,1
3277,59.714,1
3278,55.614,1
3279,52.149,1
3280,49.429,1
3281,47.455,1
3282,46.114,1
3283,45.214,1
3284,44.528,1
3285,43.82,1
3286,42.86,1
3287,41.455,1
3288,39.479,1
3289,36.879,1
3290,33.659,1
3291,29.867,1
3292,25.568,1
3293,20.837,1
3294,15.755,1
3295,10.452,1
3296,5.1509,1
3297,0.15564,1
3298,-4.2267,1
3299,-7.7779,1
3300,-10.418,1
3301,-12.202,1
3302,-13.278,1
3303,-13.831,1
3304,-14.062,1
3305,-14.173,1
3306,-14.347,1
3307,-14.727,1
3308,-15.403,1
3309,-16.421,1
3310,-17.814,1
3311,-19.646,1
3312,-22.019,1
3313,-25.023,1
3314,-28.634,1
3315,-32.649,1
3316,-36.683,1
3317,-40.249,1
3318,-42.873,1
3319,-44.219,1
3320,-44.176,1
3321,-42.889,1
3322,-40.731,1
3323,-38.206,1
3324,-35.852,1
3325,-34.174,1
3326,-33.61,1
3327,-34.486,1
3328,-36.949,1
3329,-40.926,1
3330,-46.132,1
3331,-52.154,1
3332,-58.52,1
3333,-64.751,1
3334,-70.386,1
3335,-75.026,1
3336,-78.39,1
3337,-80.356,1
3338,-80.969,1
3339,-80.434,1
3340,-79.083,1
3341,-77.295,1
3342,-75.408,1
3343,-73.69,1
3344,-72.393,1
3345,-71.853,1
3346,-72.514,1
3347,-74.88,1
3348,-79.381,1
3349,-86.256,1
3350,-95.47,1
3351,-106.68,1
3352,-119.26,1
3353,-132.38,1
3354,-145.22,1
3355,-157.09,1
3356,-167.54,1
3357,-176.38,1
3358,-183.6,1
3359,-189.39,1
3360,-193.99,1
3361,-197.69,1
3362,-200.67,1
3363,-203.06,1
3364,-204.84,1
3365,-205.94,1
3366,-206.24,1
3367,-205.65,1
3368,-204.14,1
3369,-201.8,1
3370,-198.73,1
3371,-194.99,1
3372,-190.55,1
3373,-185.28,1
3374,-178.95,1
3375,-171.39,1
3376,-162.51,1
3377,-152.38,1
3378,-141.16,1
3379,-129.18,1
3380,-116.79,1
3381,-104.4,1
3382,-92.361,1
3383,-81.023,1
3384,-70.68,1
3385,-61.555,1
3386,-53.774,1
3387,-47.336,1
3388,-42.096,1
3389,-37.77,1
3390,-34.004,1
3391,-30.441,1
3392,-26.752,1
3393,-22.643,1
3394,-17.88,1
3395,-12.302,1
3396,-5.8318,1
3397,1.531,1
3398,9.7111,1
3399,18.547,1
3400,27.758,1
3401,36.944,1
3402,45.637,1
3403,53.423,1
3404,60.05,1
3405,65.485,1
3406,69.88,1
3407,73.489,1
3408,76.603,1
3409,79.493,1
3410,82.394,1
3411,85.497,1
3412,88.919,1
3413,92.672,1
3414,96.671,1
3415,100.78,1
3416,104.84,1
3417,108.74,1
3418,112.35,1
3419,115.59,1
3420,118.4,1
3421,120.73,1
3422,122.52,1
3423,123.67,1
3424,124.05,1
3425,123.54,1
3426,122.12,1
3427,119.83,1
3428,116.79,1
3429,113.18,1
3430,109.24,1
3431,105.26,1
3432,101.57,1
3433,98.496,1
3434,96.284,1
3435,95.106,1
3436,95.006,1
3437,95.878,1
3438,97.468,1
3439,99.444,1
3440,101.49,1
3441,103.4,1
3442,105.06,1
3443,106.45,1
3444,107.62,1
3445,108.67,1
3446,109.71,1
3447,110.79,1
3448,111.89,1
3449,112.95,1
3450,113.9,1
3451,114.66,1
3452,115.16,1
3453,115.31,1
3454,115.05,1
3455,114.41,1
3456,113.46,1
3457,112.3,1
3458,110.95,1
3459,109.45,1
3460,107.76,1
3461,105.83,1
3462,103.63,1
3463,101.17,1
3464,98.549,1
3465,95.866,1
3466,93.213,1
3467,90.645,1
3468,88.191,1
3469,85.868,1
3470,83.672,1
3471,81.601,1
3472,79.675,1
3473,77.911,1
3474,76.285,1
3475,74.718,1
3476,73.102,1
3477,71.346,1
3478,69.406,1
3479,67.308,1
3480,65.127,1
3481,62.947,1
3482,60.836,1
3483,58.816,1
3484,56.866,1
3485,54.941,1
3486,53.013,1
3487,51.091,1
3488,49.212,1
3489,47.388,1
3490,45.576,1
3491,43.695,1
3492,41.67,1
3493,39.439,1
3494,36.936,1
3495,34.098,1
3496,30.913,1
3497,27.46,1
3498,23.89,1
3499,20.346,1
3500,16.865,1
3501,13.343,1
3502,9.5958,1
3503,5.4375,1
3504,0.76487,1
3505,-4.3995,1
3506,-9.9131,1
3507,-15.546,1
3508,-21.004,1
3509,-25.969,1
3510,-30.158,1
3511,-33.403,1
3512,-35.692,1
3513,-37.129,1
3514,-37.868,1
3515,-38.069,1
3516,-37.91,1
3517,-37.63,1
3518,-37.531,1
3519,-37.921,1
3520,-39.061,1
3521,-41.13,1
3522,-44.205,1
3523,-48.212,1
3524,-52.89,1
3525,-57.807,1
3526,-62.433,1
3527,-66.254,1
3528,-68.88,1
3529,-70.121,1
3530,-70.005,1
3531,-68.739,1
3532,-66.629,1
3533,-63.997,1
3534,-61.145,1
3535,-58.35,1
3536,-55.89,1
3537,-54.029,1
3538,-52.98,1
3539,-52.864,1
3540,-53.699,1
3541,-55.422,1
3542,-57.9,1
3543,-60.925,1
3544,-64.215,1
3545,-67.442,1
3546,-70.249,1
3547,-72.286,1
3548,-73.269,1
3549,-73.062,1
3550,-71.733,1
3551,-69.535,1
3552,-66.839,1
3553,-64.07,1
3554,-61.638,1
3555,-59.885,1
3556,-59.052,1
3557,-59.281,1
3558,-60.637,1
3559,-63.155,1
3560,-66.882,1
3561,-71.856,1
3562,-78.041,1
3563,-85.269,1
3564,-93.227,1
3565,-101.51,1
3566,-109.71,1
3567,-117.52,1
3568,-124.79,1
3569,-131.59,1
3570,-138.06,1
3571,-144.4,1
3572,-150.77,1
3573,-157.22,1
3574,-163.67,1
3575,-169.91,1
3576,-175.75,1
3577,-181.06,1
3578,-185.82,1
3579,-190.05,1
3580,-193.74,1
3581,-196.79,1
3582,-198.95,1
3583,-199.94,1
3584,-199.49,1
3585,-197.48,1
3586,-193.93,1
3587,-189,1
3588,-182.94,1
3589,-176.02,1
3590,-168.45,1
3591,-160.38,1
3592,-151.93,1
3593,-143.16,1
3594,-134.13,1
3595,-124.94,1
3596,-115.73,1
3597,-106.66,1
3598,-97.835,1
3599,-89.249,1
3600,-80.75,1
3601,-72.079,1
3602,-62.963,1
3603,-53.211,1
3604,-42.777,1
3605,-31.795,1
3606,-20.57,1
3607,-9.5456,1
3608,0.77836,1
3609,9.9442,1
3610,17.613,1
3611,23.615,1
3612,27.996,1
3613,31.012,1
3614,33.06,1
3615,34.577,1
3616,35.959,1
3617,37.532,1
3618,39.526,1
3619,42.067,1
3620,45.187,1
3621,48.879,1
3622,53.139,1
3623,57.976,1
3624,63.378,1
3625,69.279,1
3626,75.531,1
3627,81.937,1
3628,88.285,1
3629,94.366,1
3630,99.956,1
3631,104.82,1
3632,108.75,1
3633,111.59,1
3634,113.31,1
3635,113.9,1
3636,113.45,1
3637,112.1,1
3638,110.07,1
3639,107.7,1
3640,105.4,1
3641,103.56,1
3642,102.46,1
3643,102.26,1
3644,103.03,1
3645,104.73,1
3646,107.23,1
3647,110.31,1
3648,113.74,1
3649,117.27,1
3650,120.7,1
3651,123.75,1
3652,126.14,1
3653,127.56,1
3654,127.83,1
3655,126.9,1
3656,124.9,1
3657,122.1,1
3658,118.84,1
3659,115.54,1
3660,112.63,1
3661,110.43,1
3662,109.18,1
3663,108.93,1
3664,109.6,1
3665,110.92,1
3666,112.57,1
3667,114.2,1
3668,115.54,1
3669,116.39,1
3670,116.64,1
3671,116.28,1
3672,115.36,1
3673,113.94,1
3674,112.16,1
3675,110.18,1
3676,108.23,1
3677,106.56,1
3678,105.38,1
3679,104.86,1
3680,105.02,1
3681,105.77,1
3682,106.93,1
3683,108.28,1
3684,109.61,1
3685,110.71,1
3686,111.45,1
3687,111.75,1
3688,111.6,1
3689,111,1
3690,109.94,1
3691,108.34,1
3692,106.08,1
3693,103.04,1
3694,99.146,1
3695,94.433,1
3696,89.088,1
3697,83.409,1
3698,77.746,1
3699,72.428,1
3700,67.692,1
3701,63.634,1
3702,60.172,1
3703,57.068,1
3704,54.011,1
3705,50.713,1
3706,46.974,1
3707,42.711,1
3708,37.953,1
3709,32.839,1
3710,27.583,1
3711,22.428,1
3712,17.591,1
3713,13.246,1
3714,9.5307,1
3715,6.5512,1
3716,4.3682,1
3717,2.9725,1
3718,2.2584,1
3719,2.0134,1
3720,1.9534,1
3721,1.7917,1
3722,1.2945,1
3723,0.30936,1
3724,-1.2057,1
3725,-3.1682,1
3726,-5.4118,1
3727,-7.7723,1
3728,-10.166,1
3729,-12.616,1
3730,-15.229,1
3731,-18.138,1
3732,-21.442,1
3733,-25.146,1
3734,-29.139,1
3735,-33.196,1
3736,-37,1
3737,-40.205,1
3738,-42.51,1
3739,-43.73,1
3740,-43.861,1
3741,-43.085,1
3742,-41.734,1
3743,-40.223,1
3744,-38.986,1
3745,-38.417,1
3746,-38.834,1
3747,-40.437,1
3748,-43.288,1
3749,-47.299,1
3750,-52.239,1
3751,-57.736,1
3752,-63.298,1
3753,-68.358,1
3754,-72.376,1
3755,-74.944,1
3756,-75.872,1
3757,-75.244,1
3758,-73.392,1
3759,-70.804,1
3760,-68.032,1
3761,-65.624,1
3762,-64.045,1
3763,-63.62,1
3764,-64.492,1
3765,-66.623,1
3766,-69.821,1
3767,-73.746,1
3768,-77.935,1
3769,-81.853,1
3770,-84.956,1
3771,-86.793,1
3772,-87.097,1
3773,-85.842,1
3774,-83.224,1
3775,-79.634,1
3776,-75.601,1
3777,-71.708,1
3778,-68.477,1
3779,-66.27,1
3780,-65.228,1
3781,-65.299,1
3782,-66.318,1
3783,-68.09,1
3784,-70.439,1
3785,-73.215,1
3786,-76.267,1
3787,-79.43,1
3788,-82.527,1
3789,-85.366,1
3790,-87.733,1
3791,-89.41,1
3792,-90.202,1
3793,-89.959,1
3794,-88.585,1
3795,-86.07,1
3796,-82.534,1
3797,-78.287,1
3798,-73.811,1
3799,-69.667,1
3800,-66.344,1
3801,-64.149,1
3802,-63.168,1
3803,-63.287,1
3804,-64.245,1
3805,-65.708,1
3806,-67.348,1
3807,-68.882,1
3808,-70.08,1
3809,-70.771,1
3810,-70.868,1
3811,-70.413,1
3812,-69.597,1
3813,-68.76,1
3814,-68.355,1
3815,-68.859,1
3816,-70.689,1
3817,-74.119,1
3818,-79.229,1
3819,-85.883,1
3820,-93.77,1
3821,-102.46,1
3822,-111.44,1
3823,-120.23,1
3824,-128.41,1
3825,-135.69,1
3826,-141.97,1
3827,-147.28,1
3828,-151.75,1
3829,-155.52,1
3830,-158.68,1
3831,-161.26,1
3832,-163.23,1
3833,-164.44,1
3834,-164.66,1
3835,-163.62,1
3836,-161.09,1
3837,-156.94,1
3838,-151.14,1
3839,-143.79,1
3840,-135.07,1
3841,-125.21,1
3842,-114.53,1
3843,-103.4,1
3844,-92.275,1
3845,-81.558,1
3846,-71.543,1
3847,-62.396,1
3848,-54.155,1
3849,-46.727,1
3850,-39.885,1
3851,-33.301,1
3852,-26.635,1
3853,-19.631,1
3854,-12.177,1
3855,-4.2923,1
3856,3.8976,1
3857,12.165,1
3858,20.189,1
3859,27.603,1
3860,34.061,1
3861,39.293,1
3862,43.156,1
3863,45.664,1
3864,47.001,1
3865,47.502,1
3866,47.618,1
3867,47.856,1
3868,48.699,1
3869,50.554,1
3870,53.698,1
3871,58.211,1
3872,63.931,1
3873,70.492,1
3874,77.427,1
3875,84.307,1
3876,90.824,1
3877,96.824,1
3878,102.28,1
3879,107.22,1
3880,111.71,1
3881,115.83,1
3882,119.64,1
3883,123.23,1
3884,126.67,1
3885,130.03,1
3886,133.26,1
3887,136.32,1
3888,139.14,1
3889,141.62,1
3890,143.71,1
3891,145.37,1
3892,146.58,1
3893,147.39,1
3894,147.83,1
3895,147.96,1
3896,147.82,1
3897,147.45,1
3898,146.91,1
3899,146.19,1
3900,145.3,1
3901,144.22,1
3902,142.99,1
3903,141.76,1
3904,140.7,1
3905,139.99,1
3906,139.73,1
3907,139.97,1
3908,140.64,1
3909,141.68,1
3910,142.98,1
3911,144.43,1
3912,145.9,1
3913,147.22,1
3914,148.23,1
3915,148.75,1
3916,148.68,1
3917,147.96,1
3918,146.58,1
3919,144.55,1
3920,141.92,1
3921,138.76,1
3922,135.2,1
3923,131.39,1
3924,127.5,1
3925,123.7,1
3926,120.14,1
3927,116.95,1
3928,114.24,1
3929,112.13,1
3930,110.64,1
3931,109.75,1
3932,109.38,1
3933,109.35,1
3934,109.45,1
3935,109.38,1
3936,108.79,1
3937,107.3,1
3938,104.55,1
3939,100.35,1
3940,94.731,1
3941,87.981,1
3942,80.609,1
3943,73.261,1
3944,66.607,1
3945,61.249,1
3946,57.632,1
3947,55.972,1
3948,56.211,1
3949,58.013,1
3950,60.803,1
3951,63.877,1
3952,66.516,1
3953,68.105,1
3954,68.207,1
3955,66.609,1
3956,63.298,1
3957,58.427,1
3958,52.275,1
3959,45.229,1
3960,37.758,1
3961,30.372,1
3962,23.566,1
3963,17.743,1
3964,13.147,1
3965,9.8414,1
3966,7.701,1
3967,6.4481,1
3968,5.7164,1
3969,5.1454,1
3970,4.4655,1
3971,3.5272,1
3972,2.2646,1
3973,0.62496,1
3974,-1.4826,1
3975,-4.1865,1
3976,-7.6147,1
3977,-11.861,1
3978,-16.959,1
3979,-22.843,1
3980,-29.321,1
3981,-36.095,1
3982,-42.814,1
3983,-49.134,1
3984,-54.735,1
3985,-59.342,1
3986,-62.749,1
3987,-64.864,1
3988,-65.741,1
3989,-65.568,1
3990,-64.631,1
3991,-63.245,1
3992,-61.709,1
3993,-60.294,1
3994,-59.236,1
3995,-58.726,1
3996,-58.893,1
3997,-59.815,1
3998,-61.531,1
3999,-64.018,1
4000,-67.165,1
4001,-70.76,1
4002,-74.52,1
4003,-78.141,1
4004,-81.353,1
4005,-83.956,1
4006,-85.846,1
4007,-87.041,1
4008,-87.661,1
4009,-87.904,1
4010,-87.992,1
4011,-88.127,1
4012,-88.444,1
4013,-89.005,1
4014,-89.814,1
4015,-90.828,1
4016,-91.97,1
4017,-93.129,1
4018,-94.165,1
4019,-94.921,1
4020,-95.247,1
4021,-95.032,1
4022,-94.233,1
4023,-92.882,1
4024,-91.079,1
4025,-88.969,1
4026,-86.721,1
4027,-84.492,1
4028,-82.41,1
4029,-80.582,1
4030,-79.09,1
4031,-78.001,1
4032,-77.36,1
4033,-77.188,1
4034,-77.482,1
4035,-78.228,1
4036,-79.399,1
4037,-80.934,1
4038,-82.715,1
4039,-84.559,1
4040,-86.243,1
4041,-87.544,1
4042,-88.273,1
4043,-88.288,1
4044,-87.499,1
4045,-85.898,1
4046,-83.599,1
4047,-80.85,1
4048,-77.995,1
4049,-75.419,1
4050,-73.472,1
4051,-72.41,1
4052,-72.357,1
4053,-73.293,1
4054,-75.035,1
4055,-77.251,1
4056,-79.515,1
4057,-81.383,1
4058,-82.488,1
4059,-82.606,1
4060,-81.711,1
4061,-79.976,1
4062,-77.73,1
4063,-75.342,1
4064,-73.106,1
4065,-71.158,1
4066,-69.466,1
4067,-67.877,1
4068,-66.208,1
4069,-64.342,1
4070,-62.289,1
4071,-60.207,1
4072,-58.342,1
4073,-56.935,1
4074,-56.143,1
4075,-56.043,1
4076,-56.671,1
4077,-58.066,1
4078,-60.272,1
4079,-63.314,1
4080,-67.162,1
4081,-71.721,1
4082,-76.85,1
4083,-82.404,1
4084,-88.255,1
4085,-94.312,1
4086,-100.52,1
4087,-106.86,1
4088,-113.31,1
4089,-119.83,1
4090,-126.31,1
4091,-132.53,1
4092,-138.15,1
4093,-142.75,1
4094,-145.86,1
4095,-147.04,1
4096,-145.96,1
4097,-142.48,1
4098,-136.74,1
4099,-129.14,1
4100,-120.25,1
4101,-110.63,1
4102,-100.79,1
4103,-91.07,1
4104,-81.662,1
4105,-72.667,1
4106,-64.166,1
4107,-56.254,1
4108,-49.014,1
4109,-42.469,1
4110,-36.553,1
4111,-31.125,1
4112,-25.982,1
4113,-20.886,1
4114,-15.627,1
4115,-10.078,1
4116,-4.1952,1
4117,2.0201,1
4118,8.5688,1
4119,15.454,1
4120,22.637,1
4121,29.981,1
4122,37.249,1
4123,44.162,1
4124,50.473,1
4125,56.017,1
4126,60.738,1
4127,64.7,1
4128,68.056,1
4129,70.993,1
4130,73.678,1
4131,76.264,1
4132,78.912,1
4133,81.787,1
4134,85.019,1
4135,88.66,1
4136,92.676,1
4137,96.964,1
4138,101.37,1
4139,105.72,1
4140,109.82,1
4141,113.5,1
4142,116.62,1
4143,119.11,1
4144,121.02,1
4145,122.47,1
4146,123.59,1
4147,124.49,1
4148,125.18,1
4149,125.65,1
4150,125.87,1
4151,125.84,1
4152,125.65,1
4153,125.45,1
4154,125.42,1
4155,125.73,1
4156,126.47,1
4157,127.63,1
4158,129.09,1
4159,130.69,1
4160,132.25,1
4161,133.6,1
4162,134.59,1
4163,135.12,1
4164,135.09,1
4165,134.45,1
4166,133.24,1
4167,131.49,1
4168,129.26,1
4169,126.6,1
4170,123.59,1
4171,120.38,1
4172,117.17,1
4173,114.21,1
4174,111.73,1
4175,109.96,1
4176,109.02,1
4177,108.95,1
4178,109.67,1
4179,111.02,1
4180,112.77,1
4181,114.69,1
4182,116.56,1
4183,118.17,1
4184,119.37,1
4185,120,1
4186,119.95,1
4187,119.21,1
4188,117.83,1
4189,115.99,1
4190,113.94,1
4191,111.97,1
4192,110.31,1
4193,109.09,1
4194,108.29,1
4195,107.79,1
4196,107.38,1
4197,106.81,1
4198,105.81,1
4199,104.19,1
4200,101.86,1
4201,98.85,1
4202,95.348,1
4203,91.575,1
4204,87.742,1
4205,84.019,1
4206,80.512,1
4207,77.258,1
4208,74.22,1
4209,71.318,1
4210,68.471,1
4211,65.632,1
4212,62.784,1
4213,59.913,1
4214,56.973,1
4215,53.866,1
4216,50.445,1
4217,46.556,1
4218,42.114,1
4219,37.185,1
4220,32.016,1
4221,26.973,1
4222,22.43,1
4223,18.666,1
4224,15.785,1
4225,13.688,1
4226,12.088,1
4227,10.63,1
4228,9.0327,1
4229,7.1834,1
4230,5.1202,1
4231,2.9859,1
4232,0.96377,1
4233,-0.80394,1
4234,-2.2823,1
4235,-3.5438,1
4236,-4.7194,1
4237,-5.9583,1
4238,-7.4155,1
4239,-9.2357,1
4240,-11.516,1
4241,-14.279,1
4242,-17.483,1
4243,-21.056,1
4244,-24.901,1
4245,-28.872,1
4246,-32.76,1
4247,-36.312,1
4248,-39.269,1
4249,-41.386,1
4250,-42.455,1
4251,-42.35,1
4252,-41.086,1
4253,-38.835,1
4254,-35.898,1
4255,-32.646,1
4256,-29.512,1
4257,-26.984,1
4258,-25.567,1
4259,-25.672,1
4260,-27.521,1
4261,-31.11,1
4262,-36.23,1
4263,-42.507,1
4264,-49.449,1
4265,-56.473,1
4266,-62.949,1
4267,-68.26,1
4268,-71.914,1
4269,-73.65,1
4270,-73.525,1
4271,-71.913,1
4272,-69.413,1
4273,-66.699,1
4274,-64.4,1
4275,-63.033,1
4276,-62.947,1
4277,-64.303,1
4278,-67.065,1
4279,-71.031,1
4280,-75.865,1
4281,-81.116,1
4282,-86.277,1
4283,-90.846,1
4284,-94.39,1
4285,-96.583,1
4286,-97.253,1
4287,-96.426,1
4288,-94.326,1
4289,-91.317,1
4290,-87.843,1
4291,-84.362,1
4292,-81.3,1
4293,-78.995,1
4294,-77.654,1
4295,-77.328,1
4296,-77.89,1
4297,-79.062,1
4298,-80.476,1
4299,-81.766,1
4300,-82.646,1
4301,-82.958,1
4302,-82.675,1
4303,-81.873,1
4304,-80.672,1
4305,-79.178,1
4306,-77.445,1
4307,-75.488,1
4308,-73.356,1
4309,-71.189,1
4310,-69.212,1
4311,-67.67,1
4312,-66.76,1
4313,-66.594,1
4314,-67.174,1
4315,-68.397,1
4316,-70.085,1
4317,-72.018,1
4318,-73.983,1
4319,-75.809,1
4320,-77.408,1
4321,-78.801,1
4322,-80.126,1
4323,-81.598,1
4324,-83.437,1
4325,-85.798,1
4326,-88.732,1
4327,-92.198,1
4328,-96.092,1
4329,-100.27,1
4330,-104.59,1
4331,-108.92,1
4332,-113.2,1
4333,-117.39,1
4334,-121.44,1
4335,-125.33,1
4336,-128.98,1
4337,-132.37,1
4338,-135.4,1
4339,-137.99,1
4340,-140.02,1
4341,-141.43,1
4342,-142.19,1
4343,-142.27,1
4344,-141.62,1
4345,-140.15,1
4346,-137.72,1
4347,-134.15,1
4348,-129.3,1
4349,-123.13,1
4350,-115.68,1
4351,-107.15,1
4352,-97.825,1
4353,-88.045,1
4354,-78.209,1
4355,-68.721,1
4356,-59.967,1
4357,-52.267,1
4358,-45.822,1
4359,-40.654,1
4360,-36.599,1
4361,-33.35,1
4362,-30.526,1
4363,-27.726,1
4364,-24.594,1
4365,-20.856,1
4366,-16.347,1
4367,-11.031,1
4368,-4.9995,1
4369,1.5506,1
4370,8.355,1
4371,15.11,1
4372,21.502,1
4373,27.264,1
4374,32.234,1
4375,36.384,1
4376,39.8,1
4377,42.623,1
4378,45.012,1
4379,47.153,1
4380,49.278,1
4381,51.663,1
4382,54.604,1
4383,58.387,1
4384,63.213,1
4385,69.1,1
4386,75.831,1
4387,82.997,1
4388,90.111,1
4389,96.721,1
4390,102.51,1
4391,107.33,1
4392,111.18,1
4393,114.13,1
4394,116.25,1
4395,117.59,1
4396,118.26,1
4397,118.43,1
4398,118.32,1
4399,118.17,1
4400,118.15,1
4401,118.31,1
4402,118.63,1
4403,118.98,1
4404,119.23,1
4405,119.27,1
4406,118.98,1
4407,118.36,1
4408,117.43,1
4409,116.32,1
4410,115.18,1
4411,114.14,1
4412,113.2,1
4413,112.28,1
4414,111.25,1
4415,110.02,1
4416,108.56,1
4417,106.94,1
4418,105.22,1
4419,103.48,1
4420,101.73,1
4421,99.967,1
4422,98.247,1
4423,96.688,1
4424,95.451,1
4425,94.676,1
4426,94.444,1
4427,94.799,1
4428,95.774,1
4429,97.373,1
4430,99.523,1
4431,102.04,1
4432,104.6,1
4433,106.82,1
4434,108.27,1
4435,108.65,1
4436,107.85,1
4437,105.97,1
4438,103.27,1
4439,100.13,1
4440,96.908,1
4441,93.931,1
4442,91.423,1
4443,89.516,1
4444,88.258,1
4445,87.622,1
4446,87.497,1
4447,87.7,1
4448,88.012,1
4449,88.23,1
4450,88.186,1
4451,87.728,1
4452,86.688,1
4453,84.873,1
4454,82.11,1
4455,78.316,1
4456,73.568,1
4457,68.125,1
4458,62.378,1
4459,56.735,1
4460,51.53,1
4461,46.973,1
4462,43.155,1
4463,40.059,1
4464,37.556,1
4465,35.421,1
4466,33.376,1
4467,31.182,1
4468,28.711,1
4469,25.979,1
4470,23.123,1
4471,20.343,1
4472,17.843,1
4473,15.805,1
4474,14.362,1
4475,13.567,1
4476,13.379,1
4477,13.679,1
4478,14.289,1
4479,14.989,1
4480,15.517,1
4481,15.609,1
4482,15.036,1
4483,13.637,1
4484,11.358,1
4485,8.2752,1
4486,4.5818,1
4487,0.5243,1
4488,-3.6562,1
4489,-7.7606,1
4490,-11.665,1
4491,-15.346,1
4492,-18.849,1
4493,-22.217,1
4494,-25.432,1
4495,-28.414,1
4496,-31.059,1
4497,-33.281,1
4498,-35.043,1
4499,-36.358,1
4500,-37.263,1
4501,-37.828,1
4502,-38.186,1
4503,-38.548,1
4504,-39.146,1
4505,-40.144,1
4506,-41.578,1
4507,-43.392,1
4508,-45.52,1
4509,-47.938,1
4510,-50.63,1
4511,-53.493,1
4512,-56.305,1
4513,-58.754,1
4514,-60.537,1
4515,-61.444,1
4516,-61.425,1
4517,-60.597,1
4518,-59.202,1
4519,-57.531,1
4520,-55.831,1
4521,-54.247,1
4522,-52.808,1
4523,-51.445,1
4524,-50.06,1
4525,-48.599,1
4526,-47.14,1
4527,-45.929,1
4528,-45.359,1
4529,-45.849,1
4530,-47.685,1
4531,-50.91,1
4532,-55.312,1
4533,-60.485,1
4534,-65.894,1
4535,-70.944,1
4536,-75.079,1
4537,-77.858,1
4538,-79.021,1
4539,-78.548,1
4540,-76.69,1
4541,-73.928,1
4542,-70.85,1
4543,-68.022,1
4544,-65.918,1
4545,-64.889,1
4546,-65.142,1
4547,-66.71,1
4548,-69.453,1
4549,-73.066,1
4550,-77.12,1
4551,-81.113,1
4552,-84.54,1
4553,-86.96,1
4554,-88.043,1
4555,-87.63,1
4556,-85.766,1
4557,-82.687,1
4558,-78.747,1
4559,-74.325,1
4560,-69.751,1
4561,-65.286,1
4562,-61.15,1
4563,-57.583,1
4564,-54.839,1
4565,-53.151,1
4566,-52.677,1
4567,-53.46,1
4568,-55.379,1
4569,-58.154,1
4570,-61.407,1
4571,-64.773,1
4572,-67.991,1
4573,-70.952,1
4574,-73.685,1
4575,-76.305,1
4576,-78.98,1
4577,-81.918,1
4578,-85.345,1
4579,-89.472,1
4580,-94.445,1
4581,-100.32,1
4582,-107.04,1
4583,-114.48,1
4584,-122.39,1
4585,-130.44,1
4586,-138.27,1
4587,-145.48,1
4588,-151.69,1
4589,-156.58,1
4590,-159.86,1
4591,-161.29,1
4592,-160.73,1
4593,-158.14,1
4594,-153.61,1
4595,-147.42,1
4596,-139.89,1
4597,-131.39,1
4598,-122.25,1
4599,-112.81,1
4600,-103.37,1
4601,-94.153,1
4602,-85.343,1
4603,-77.06,1
4604,-69.386,1
4605,-62.361,1
4606,-55.955,1
4607,-50.033,1
4608,-44.355,1
4609,-38.617,1
4610,-32.557,1
4611,-26.052,1
4612,-19.14,1
4613,-11.975,1
4614,-4.7449,1
4615,2.3928,1
4616,9.3282,1
4617,15.975,1
4618,22.249,1
4619,28.066,1
4620,33.366,1
4621,38.123,1
4622,42.35,1
4623,46.093,1
4624,49.421,1
4625,52.44,1
4626,55.32,1
4627,58.282,1
4628,61.526,1
4629,65.165,1
4630,69.207,1
4631,73.576,1
4632,78.137,1
4633,82.725,1
4634,87.149,1
4635,91.202,1
4636,94.703,1
4637,97.556,1
4638,99.795,1
4639,101.55,1
4640,102.98,1
4641,104.15,1
4642,105.07,1
4643,105.67,1
4644,105.92,1
4645,105.85,1
4646,105.59,1
4647,105.3,1
4648,105.12,1
4649,105.17,1
4650,105.48,1
4651,105.96,1
4652,106.47,1
4653,106.87,1
4654,107.13,1
4655,107.25,1
4656,107.32,1
4657,107.37,1
4658,107.46,1
4659,107.58,1
4660,107.7,1
4661,107.79,1
4662,107.8,1
4663,107.69,1
4664,107.48,1
4665,107.25,1
4666,107.14,1
4667,107.41,1
4668,108.28,1
4669,109.89,1
4670,112.16,1
4671,114.79,1
4672,117.34,1
4673,119.34,1
4674,120.43,1
4675,120.39,1
4676,119.26,1
4677,117.24,1
4678,114.63,1
4679,111.74,1
4680,108.79,1
4681,105.92,1
4682,103.24,1
4683,100.85,1
4684,98.912,1
4685,97.572,1
4686,96.956,1
4687,97.067,1
4688,97.752,1
4689,98.738,1
4690,99.728,1
4691,100.46,1
4692,100.73,1
4693,100.42,1
4694,99.464,1
4695,97.834,1
4696,95.506,1
4697,92.451,1
4698,88.679,1
4699,84.298,1
4700,79.499,1
4701,74.497,1
4702,69.489,1
4703,64.663,1
4704,60.227,1
4705,56.411,1
4706,53.421,1
4707,51.395,1
4708,50.376,1
4709,50.302,1
4710,50.996,1
4711,52.169,1
4712,53.434,1
4713,54.367,1
4714,54.595,1
4715,53.864,1
4716,52.036,1
4717,49.068,1
4718,44.996,1
4719,39.946,1
4720,34.147,1
4721,27.917,1
4722,21.649,1
4723,15.786,1
4724,10.761,1
4725,6.9179,1
4726,4.4328,1
4727,3.2829,1
4728,3.2641,1
4729,4.0307,1
4730,5.1384,1
4731,6.0965,1
4732,6.4268,1
4733,5.7306,1
4734,3.7703,1
4735,0.53232,1
4736,-3.787,1
4737,-8.8742,1
4738,-14.409,1
4739,-20.119,1
4740,-25.761,1
4741,-31.081,1
4742,-35.805,1
4743,-39.682,1
4744,-42.527,1
4745,-44.256,1
4746,-44.89,1
4747,-44.551,1
4748,-43.445,1
4749,-41.835,1
4750,-40.034,1
4751,-38.38,1
4752,-37.184,1
4753,-36.668,1
4754,-36.953,1
4755,-38.077,1
4756,-40.029,1
4757,-42.744,1
4758,-46.091,1
4759,-49.86,1
4760,-53.764,1
4761,-57.461,1
4762,-60.616,1
4763,-62.979,1
4764,-64.459,1
4765,-65.141,1
4766,-65.216,1
4767,-64.882,1
4768,-64.262,1
4769,-63.423,1
4770,-62.428,1
4771,-61.367,1
4772,-60.352,1
4773,-59.489,1
4774,-58.869,1
4775,-58.562,1
4776,-58.601,1
4777,-58.966,1
4778,-59.6,1
4779,-60.437,1
4780,-61.393,1
4781,-62.368,1
4782,-63.255,1
4783,-63.979,1
4784,-64.521,1
4785,-64.929,1
4786,-65.294,1
4787,-65.721,1
4788,-66.298,1
4789,-67.065,1
4790,-68,1
4791,-69.03,1
4792,-70.053,1
4793,-70.967,1
4794,-71.717,1
4795,-72.334,1
4796,-72.95,1
4797,-73.735,1
4798,-74.805,1
4799,-76.163,1
4800,-77.72,1
4801,-79.333,1
4802,-80.826,1
4803,-82.015,1
4804,-82.748,1
4805,-82.92,1
4806,-82.465,1
4807,-81.363,1
4808,-79.656,1
4809,-77.451,1
4810,-74.916,1
4811,-72.253,1
4812,-69.689,1
4813,-67.481,1
4814,-65.91,1
4815,-65.203,1
4816,-65.439,1
4817,-66.501,1
4818,-68.125,1
4819,-69.99,1
4820,-71.807,1
4821,-73.398,1
4822,-74.728,1
4823,-75.917,1
4824,-77.223,1
4825,-79.009,1
4826,-81.644,1
4827,-85.375,1
4828,-90.242,1
4829,-96.061,1
4830,-102.47,1
4831,-109.04,1
4832,-115.33,1
4833,-121.01,1
4834,-125.85,1
4835,-129.75,1
4836,-132.69,1
4837,-134.69,1
4838,-135.78,1
4839,-136.02,1
4840,-135.47,1
4841,-134.15,1
4842,-132.09,1
4843,-129.34,1
4844,-125.97,1
4845,-122.07,1
4846,-117.73,1
4847,-113.04,1
4848,-108.02,1
4849,-102.68,1
4850,-97.041,1
4851,-91.147,1
4852,-85.047,1
4853,-78.758,1
4854,-72.276,1
4855,-65.575,1
4856,-58.617,1
4857,-51.398,1
4858,-43.973,1
4859,-36.436,1
4860,-28.901,1
4861,-21.483,1
4862,-14.277,1
4863,-7.331,1
4864,-0.63096,1
4865,5.879,1
4866,12.261,1
4867,18.538,1
4868,24.648,1
4869,30.41,1
4870,35.539,1
4871,39.737,1
4872,42.805,1
4873,44.741,1
4874,45.759,1
4875,46.257,1
4876,46.753,1
4877,47.783,1
4878,49.779,1
4879,52.98,1
4880,57.394,1
4881,62.832,1
4882,68.945,1
4883,75.282,1
4884,81.359,1
4885,86.738,1
4886,91.116,1
4887,94.36,1
4888,96.484,1
4889,97.589,1
4890,97.82,1
4891,97.359,1
4892,96.436,1
4893,95.353,1
4894,94.469,1
4895,94.159,1
4896,94.745,1
4897,96.414,1
4898,99.188,1
4899,102.92,1
4900,107.32,1
4901,111.96,1
4902,116.35,1
4903,119.99,1
4904,122.45,1
4905,123.39,1
4906,122.65,1
4907,120.26,1
4908,116.37,1
4909,111.31,1
4910,105.48,1
4911,99.399,1
4912,93.597,1
4913,88.632,1
4914,84.995,1
4915,83.024,1
4916,82.829,1
4917,84.284,1
4918,87.086,1
4919,90.839,1
4920,95.107,1
4921,99.427,1
4922,103.35,1
4923,106.51,1
4924,108.62,1
4925,109.53,1
4926,109.21,1
4927,107.75,1
4928,105.37,1
4929,102.32,1
4930,98.949,1
4931,95.618,1
4932,92.666,1
4933,90.363,1
4934,88.852,1
4935,88.126,1
4936,88.014,1
4937,88.211,1
4938,88.37,1
4939,88.209,1
4940,87.568,1
4941,86.41,1
4942,84.793,1
4943,82.839,1
4944,80.711,1
4945,78.566,1
4946,76.511,1
4947,74.559,1
4948,72.634,1
4949,70.621,1
4950,68.427,1
4951,66.041,1
4952,63.525,1
4953,60.973,1
4954,58.47,1
4955,56.094,1
4956,53.927,1
4957,52.05,1
4958,50.526,1
4959,49.371,1
4960,48.539,1
4961,47.943,1
4962,47.473,1
4963,47.004,1
4964,46.384,1
4965,45.43,1
4966,43.968,1
4967,41.886,1
4968,39.17,1
4969,35.932,1
4970,32.403,1
4971,28.899,1
4972,25.759,1
4973,23.275,1
4974,21.612,1
4975,20.74,1
4976,20.416,1
4977,20.262,1
4978,19.877,1
4979,18.927,1
4980,17.219,1
4981,14.734,1
4982,11.611,1
4983,8.0837,1
4984,4.3856,1
4985,0.66949,1
4986,-3.0181,1
4987,-6.6999,1
4988,-10.41,1
4989,-14.156,1
4990,-17.899,1
4991,-21.577,1
4992,-25.142,1
4993,-28.588,1
4994,-31.927,1
4995,-35.149,1
4996,-38.185,1
4997,-40.889,1
4998,-43.063,1
4999,-44.529,1
5000,-45.21,1
5001,-45.176,1
5002,-44.649,1
5003,-43.95,1
5004,-43.415,1
5005,-43.29,1
5006,-43.666,1
5007,-44.48,1
5008,-45.581,1
5009,-46.807,1
5010,-48.033,1
5011,-49.175,1
5012,-50.178,1
5013,-51.001,1
5014,-51.609,1
5015,-51.978,1
5016,-52.131,1
5017,-52.168,1
5018,-52.242,1
5019,-52.495,1
5020,-52.999,1
5021,-53.747,1
5022,-54.673,1
5023,-55.679,1
5024,-56.666,1
5025,-57.548,1
5026,-58.261,1
5027,-58.771,1
5028,-59.088,1
5029,-59.231,1
5030,-59.178,1
5031,-58.822,1
5032,-57.993,1
5033,-56.531,1
5034,-54.389,1
5035,-51.654,1
5036,-48.52,1
5037,-45.24,1
5038,-42.111,1
5039,-39.448,1
5040,-37.544,1
5041,-36.618,1
5042,-36.78,1
5043,-38.007,1
5044,-40.111,1
5045,-42.742,1
5046,-45.46,1
5047,-47.842,1
5048,-49.556,1
5049,-50.397,1
5050,-50.303,1
5051,-49.349,1
5052,-47.732,1
5053,-45.764,1
5054,-43.843,1
5055,-42.395,1
5056,-41.823,1
5057,-42.463,1
5058,-44.561,1
5059,-48.237,1
5060,-53.476,1
5061,-60.12,1
5062,-67.87,1
5063,-76.311,1
5064,-84.98,1
5065,-93.453,1
5066,-101.39,1
5067,-108.57,1
5068,-114.85,1
5069,-120.27,1
5070,-124.94,1
5071,-129.05,1
5072,-132.78,1
5073,-136.25,1
5074,-139.54,1
5075,-142.65,1
5076,-145.48,1
5077,-147.86,1
5078,-149.51,1
5079,-150.19,1
5080,-149.68,1
5081,-147.9,1
5082,-144.86,1
5083,-140.66,1
5084,-135.41,1
5085,-129.21,1
5086,-122.13,1
5087,-114.29,1
5088,-105.82,1
5089,-96.881,1
5090,-87.679,1
5091,-78.423,1
5092,-69.327,1
5093,-60.569,1
5094,-52.269,1
5095,-44.496,1
5096,-37.291,1
5097,-30.714,1
5098,-24.865,1
5099,-19.848,1
5100,-15.695,1
5101,-12.324,1
5102,-9.5377,1
5103,-7.0823,1
5104,-4.7119,1
5105,-2.2368,1
5106,0.47715,1
5107,3.5356,1
5108,7.0301,1
5109,11.028,1
5110,15.55,1
5111,20.543,1
5112,25.859,1
5113,31.275,1
5114,36.56,1
5115,41.515,1
5116,46.006,1
5117,49.958,1
5118,53.35,1
5119,56.198,1
5120,58.526,1
5121,60.391,1
5122,61.905,1
5123,63.243,1
5124,64.602,1
5125,66.137,1
5126,67.898,1
5127,69.788,1
5128,71.577,1
5129,72.964,1
5130,73.685,1
5131,73.61,1
5132,72.81,1
5133,71.536,1
5134,70.123,1
5135,68.887,1
5136,68.065,1
5137,67.778,1
5138,68.026,1
5139,68.724,1
5140,69.773,1
5141,71.091,1
5142,72.618,1
5143,74.311,1
5144,76.118,1
5145,77.963,1
5146,79.75,1
5147,81.361,1
5148,82.666,1
5149,83.551,1
5150,83.984,1
5151,84.037,1
5152,83.871,1
5153,83.68,1
5154,83.623,1
5155,83.758,1
5156,84.022,1
5157,84.27,1
5158,84.35,1
5159,84.157,1
5160,83.67,1
5161,82.968,1
5162,82.207,1
5163,81.559,1
5164,81.157,1
5165,81.074,1
5166,81.314,1
5167,81.817,1
5168,82.464,1
5169,83.089,1
5170,83.52,1
5171,83.64,1
5172,83.426,1
5173,82.955,1
5174,82.341,1
5175,81.675,1
5176,80.995,1
5177,80.291,1
5178,79.527,1
5179,78.663,1
5180,77.658,1
5181,76.455,1
5182,74.981,1
5183,73.193,1
5184,71.112,1
5185,68.834,1
5186,66.514,1
5187,64.338,1
5188,62.474,1
5189,61.025,1
5190,59.994,1
5191,59.26,1
5192,58.588,1
5193,57.666,1
5194,56.174,1
5195,53.877,1
5196,50.729,1
5197,46.908,1
5198,42.763,1
5199,38.718,1
5200,35.194,1
5201,32.542,1
5202,30.977,1
5203,30.533,1
5204,31.04,1
5205,32.139,1
5206,33.346,1
5207,34.141,1
5208,34.065,1
5209,32.794,1
5210,30.175,1
5211,26.235,1
5212,21.165,1
5213,15.298,1
5214,9.0813,1
5215,3.0471,1
5216,-2.2441,1
5217,-6.3127,1
5218,-8.8752,1
5219,-9.906,1
5220,-9.6208,1
5221,-8.4032,1
5222,-6.7159,1
5223,-5.0206,1
5224,-3.7138,1
5225,-3.08,1
5226,-3.2742,1
5227,-4.3395,1
5228,-6.2385,1
5229,-8.8622,1
5230,-12.007,1
5231,-15.361,1
5232,-18.552,1
5233,-21.259,1
5234,-23.282,1
5235,-24.545,1
5236,-25.053,1
5237,-24.88,1
5238,-24.186,1
5239,-23.207,1
5240,-22.206,1
5241,-21.423,1
5242,-21.06,1
5243,-21.292,1
5244,-22.257,1
5245,-24.009,1
5246,-26.456,1
5247,-29.355,1
5248,-32.396,1
5249,-35.288,1
5250,-37.817,1
5251,-39.845,1
5252,-41.302,1
5253,-42.179,1
5254,-42.531,1
5255,-42.473,1
5256,-42.159,1
5257,-41.774,1
5258,-41.506,1
5259,-41.537,1
5260,-42.026,1
5261,-43.086,1
5262,-44.735,1
5263,-46.854,1
5264,-49.199,1
5265,-51.461,1
5266,-53.352,1
5267,-54.686,1
5268,-55.428,1
5269,-55.687,1
5270,-55.66,1
5271,-55.54,1
5272,-55.481,1
5273,-55.602,1
5274,-56.003,1
5275,-56.767,1
5276,-57.941,1
5277,-59.501,1
5278,-61.367,1
5279,-63.417,1
5280,-65.529,1
5281,-67.625,1
5282,-69.718,1
5283,-71.907,1
5284,-74.329,1
5285,-77.134,1
5286,-80.48,1
5287,-84.524,1
5288,-89.415,1
5289,-95.259,1
5290,-102.07,1
5291,-109.73,1
5292,-117.93,1
5293,-126.28,1
5294,-134.31,1
5295,-141.55,1
5296,-147.64,1
5297,-152.36,1
5298,-155.62,1
5299,-157.39,1
5300,-157.69,1
5301,-156.58,1
5302,-154.09,1
5303,-150.27,1
5304,-145.2,1
5305,-139.01,1
5306,-131.93,1
5307,-124.27,1
5308,-116.36,1
5309,-108.51,1
5310,-100.97,1
5311,-93.93,1
5312,-87.507,1
5313,-81.762,1
5314,-76.672,1
5315,-72.086,1
5316,-67.723,1
5317,-63.263,1
5318,-58.473,1
5319,-53.26,1
5320,-47.615,1
5321,-41.553,1
5322,-35.118,1
5323,-28.413,1
5324,-21.612,1
5325,-14.935,1
5326,-8.6162,1
5327,-2.8421,1
5328,2.2846,1
5329,6.7597,1
5330,10.668,1
5331,14.17,1
5332,17.474,1
5333,20.806,1
5334,24.352,1
5335,28.221,1
5336,32.405,1
5337,36.757,1
5338,41.025,1
5339,44.924,1
5340,48.224,1
5341,50.818,1
5342,52.758,1
5343,54.23,1
5344,55.487,1
5345,56.743,1
5346,58.131,1
5347,59.694,1
5348,61.432,1
5349,63.356,1
5350,65.49,1
5351,67.838,1
5352,70.328,1
5353,72.806,1
5354,75.073,1
5355,76.923,1
5356,78.18,1
5357,78.738,1
5358,78.611,1
5359,77.915,1
5360,76.809,1
5361,75.434,1
5362,73.891,1
5363,72.242,1
5364,70.518,1
5365,68.737,1
5366,66.959,1
5367,65.322,1
5368,64.027,1
5369,63.261,1
5370,63.139,1
5371,63.697,1
5372,64.903,1
5373,66.683,1
5374,68.915,1
5375,71.455,1
5376,74.147,1
5377,76.843,1
5378,79.389,1
5379,81.642,1
5380,83.488,1
5381,84.853,1
5382,85.698,1
5383,86.006,1
5384,85.79,1
5385,85.102,1
5386,84.068,1
5387,82.896,1
5388,81.851,1
5389,81.188,1
5390,81.091,1
5391,81.615,1
5392,82.666,1
5393,84.019,1
5394,85.358,1
5395,86.356,1
5396,86.75,1
5397,86.398,1
5398,85.322,1
5399,83.692,1
5400,81.758,1
5401,79.76,1
5402,77.896,1
5403,76.306,1
5404,75.075,1
5405,74.244,1
5406,73.847,1
5407,73.9,1
5408,74.358,1
5409,75.08,1
5410,75.851,1
5411,76.425,1
5412,76.561,1
5413,76.047,1
5414,74.719,1
5415,72.482,1
5416,69.333,1
5417,65.387,1
5418,60.883,1
5419,56.118,1
5420,51.346,1
5421,46.716,1
5422,42.257,1
5423,37.938,1
5424,33.736,1
5425,29.686,1
5426,25.884,1
5427,22.478,1
5428,19.648,1
5429,17.567,1
5430,16.333,1
5431,15.939,1
5432,16.261,1
5433,17.068,1
5434,18.053,1
5435,18.88,1
5436,19.222,1
5437,18.796,1
5438,17.394,1
5439,14.916,1
5440,11.371,1
5441,6.8863,1
5442,1.7138,1
5443,-3.7635,1
5444,-9.0723,1
5445,-13.721,1
5446,-17.276,1
5447,-19.423,1
5448,-20.019,1
5449,-19.117,1
5450,-16.961,1
5451,-13.943,1
5452,-10.556,1
5453,-7.3384,1
5454,-4.7964,1
5455,-3.33,1
5456,-3.1816,1
5457,-4.4345,1
5458,-7.0353,1
5459,-10.818,1
5460,-15.524,1
5461,-20.815,1
5462,-26.293,1
5463,-31.506,1
5464,-35.993,1
5465,-39.354,1
5466,-41.35,1
5467,-41.971,1
5468,-41.456,1
5469,-40.224,1
5470,-38.751,1
5471,-37.443,1
5472,-36.572,1
5473,-36.277,1
5474,-36.6,1
5475,-37.513,1
5476,-38.936,1
5477,-40.74,1
5478,-42.766,1
5479,-44.834,1
5480,-46.768,1
5481,-48.424,1
5482,-49.719,1
5483,-50.634,1
5484,-51.208,1
5485,-51.514,1
5486,-51.639,1
5487,-51.66,1
5488,-51.651,1
5489,-51.686,1
5490,-51.839,1
5491,-52.172,1
5492,-52.733,1
5493,-53.527,1
5494,-54.511,1
5495,-55.591,1
5496,-56.627,1
5497,-57.462,1
5498,-57.976,1
5499,-58.143,1
5500,-58.036,1
5501,-57.779,1
5502,-57.471,1
5503,-57.14,1
5504,-56.762,1
5505,-56.299,1
5506,-55.72,1
5507,-55.018,1
5508,-54.201,1
5509,-53.293,1
5510,-52.338,1
5511,-51.427,1
5512,-50.716,1
5513,-50.434,1
5514,-50.852,1
5515,-52.231,1
5516,-54.78,1
5517,-58.635,1
5518,-63.862,1
5519,-70.474,1
5520,-78.425,1
5521,-87.562,1
5522,-97.574,1
5523,-107.99,1
5524,-118.26,1
5525,-127.82,1
5526,-136.17,1
5527,-142.92,1
5528,-147.84,1
5529,-150.8,1
5530,-151.83,1
5531,-151.05,1
5532,-148.72,1
5533,-145.23,1
5534,-141.09,1
5535,-136.82,1
5536,-132.87,1
5537,-129.52,1
5538,-126.88,1
5539,-124.89,1
5540,-123.34,1
5541,-121.9,1
5542,-120.11,1
5543,-117.44,1
5544,-113.39,1
5545,-107.64,1
5546,-100.07,1
5547,-90.806,1
5548,-80.176,1
5549,-68.647,1
5550,-56.766,1
5551,-45.106,1
5552,-34.208,1
5553,-24.534,1
5554,-16.41,1
5555,-9.9906,1
5556,-5.2385,1
5557,-1.917,1
5558,0.37719,1
5559,2.1413,1
5560,3.8766,1
5561,6.0097,1
5562,8.8319,1
5563,12.463,1
5564,16.841,1
5565,21.742,1
5566,26.845,1
5567,31.806,1
5568,36.328,1
5569,40.194,1
5570,43.263,1
5571,45.461,1
5572,46.807,1
5573,47.436,1
5574,47.582,1
5575,47.535,1
5576,47.594,1
5577,48.039,1
5578,49.109,1
5579,50.978,1
5580,53.714,1
5581,57.261,1
5582,61.454,1
5583,66.065,1
5584,70.841,1
5585,75.522,1
5586,79.849,1
5587,83.57,1
5588,86.461,1
5589,88.357,1
5590,89.179,1
5591,88.935,1
5592,87.686,1
5593,85.526,1
5594,82.588,1
5595,79.077,1
5596,75.282,1
5597,71.556,1
5598,68.285,1
5599,65.862,1
5600,64.624,1
5601,64.779,1
5602,66.343,1
5603,69.137,1
5604,72.834,1
5605,77.031,1
5606,81.302,1
5607,85.225,1
5608,88.392,1
5609,90.455,1
5610,91.191,1
5611,90.544,1
5612,88.628,1
5613,85.71,1
5614,82.188,1
5615,78.533,1
5616,75.216,1
5617,72.618,1
5618,70.986,1
5619,70.422,1
5620,70.895,1
5621,72.255,1
5622,74.244,1
5623,76.54,1
5624,78.813,1
5625,80.806,1
5626,82.379,1
5627,83.505,1
5628,84.231,1
5629,84.642,1
5630,84.83,1
5631,84.857,1
5632,84.728,1
5633,84.406,1
5634,83.843,1
5635,82.988,1
5636,81.792,1
5637,80.231,1
5638,78.32,1
5639,76.114,1
5640,73.701,1
5641,71.201,1
5642,68.754,1
5643,66.492,1
5644,64.477,1
5645,62.686,1
5646,61.025,1
5647,59.384,1
5648,57.66,1
5649,55.758,1
5650,53.579,1
5651,51.033,1
5652,48.073,1
5653,44.723,1
5654,41.106,1
5655,37.48,1
5656,34.23,1
5657,31.787,1
5658,30.487,1
5659,30.46,1
5660,31.605,1
5661,33.635,1
5662,36.147,1
5663,38.674,1
5664,40.744,1
5665,41.954,1
5666,42.018,1
5667,40.79,1
5668,38.26,1
5669,34.546,1
5670,29.89,1
5671,24.639,1
5672,19.196,1
5673,13.958,1
5674,9.2616,1
5675,5.3478,1
5676,2.3534,1
5677,0.31801,1
5678,-0.81139,1
5679,-1.1967,1
5680,-1.1234,1
5681,-0.97537,1
5682,-1.1653,1
5683,-2.0499,1
5684,-3.8566,1
5685,-6.6375,1
5686,-10.259,1
5687,-14.434,1
5688,-18.807,1
5689,-23.057,1
5690,-26.968,1
5691,-30.439,1
5692,-33.462,1
5693,-36.072,1
5694,-38.294,1
5695,-40.107,1
5696,-41.458,1
5697,-42.296,1
5698,-42.596,1
5699,-42.391,1
5700,-41.777,1
5701,-40.879,1
5702,-39.804,1
5703,-38.646,1
5704,-37.515,1
5705,-36.556,1
5706,-35.93,1
5707,-35.791,1
5708,-36.291,1
5709,-37.543,1
5710,-39.558,1
5711,-42.201,1
5712,-45.21,1
5713,-48.249,1
5714,-51.001,1
5715,-53.238,1
5716,-54.859,1
5717,-55.896,1
5718,-56.484,1
5719,-56.817,1
5720,-57.097,1
5721,-57.48,1
5722,-58.026,1
5723,-58.697,1
5724,-59.406,1
5725,-60.056,1
5726,-60.567,1
5727,-60.88,1
5728,-60.954,1
5729,-60.762,1
5730,-60.278,1
5731,-59.474,1
5732,-58.324,1
5733,-56.796,1
5734,-54.854,1
5735,-52.468,1
5736,-49.656,1
5737,-46.543,1
5738,-43.378,1
5739,-40.517,1
5740,-38.384,1
5741,-37.408,1
5742,-37.932,1
5743,-40.132,1
5744,-43.987,1
5745,-49.316,1
5746,-55.828,1
5747,-63.159,1
5748,-70.895,1
5749,-78.61,1
5750,-85.917,1
5751,-92.536,1
5752,-98.348,1
5753,-103.4,1
5754,-107.86,1
5755,-111.9,1
5756,-115.64,1
5757,-119.14,1
5758,-122.35,1
5759,-125.22,1
5760,-127.69,1
5761,-129.77,1
5762,-131.49,1
5763,-132.88,1
5764,-133.9,1
5765,-134.39,1
5766,-134.15,1
5767,-132.93,1
5768,-130.51,1
5769,-126.73,1
5770,-121.49,1
5771,-114.79,1
5772,-106.68,1
5773,-97.348,1
5774,-87.064,1
5775,-76.199,1
5776,-65.178,1
5777,-54.434,1
5778,-44.383,1
5779,-35.394,1
5780,-27.749,1
5781,-21.609,1
5782,-17.012,1
5783,-13.846,1
5784,-11.831,1
5785,-10.548,1
5786,-9.5493,1
5787,-8.4582,1
5788,-7.0288,1
5789,-5.1573,1
5790,-2.8605,1
5791,-0.22539,1
5792,2.6501,1
5793,5.7041,1
5794,8.9187,1
5795,12.291,1
5796,15.81,1
5797,19.463,1
5798,23.257,1
5799,27.207,1
5800,31.304,1
5801,35.468,1
5802,39.529,1
5803,43.249,1
5804,46.386,1
5805,48.782,1
5806,50.414,1
5807,51.375,1
5808,51.818,1
5809,51.946,1
5810,52.016,1
5811,52.329,1
5812,53.167,1
5813,54.708,1
5814,56.958,1
5815,59.759,1
5816,62.858,1
5817,65.977,1
5818,68.849,1
5819,71.216,1
5820,72.829,1
5821,73.463,1
5822,72.989,1
5823,71.456,1
5824,69.14,1
5825,66.514,1
5826,64.144,1
5827,62.538,1
5828,62.014,1
5829,62.653,1
5830,64.309,1
5831,66.692,1
5832,69.461,1
5833,72.3,1
5834,74.958,1
5835,77.249,1
5836,79.038,1
5837,80.248,1
5838,80.861,1
5839,80.896,1
5840,80.362,1
5841,79.255,1
5842,77.595,1
5843,75.488,1
5844,73.135,1
5845,70.808,1
5846,68.796,1
5847,67.365,1
5848,66.72,1
5849,66.966,1
5850,68.094,1
5851,69.978,1
5852,72.391,1
5853,75.032,1
5854,77.564,1
5855,79.671,1
5856,81.104,1
5857,81.674,1
5858,81.258,1
5859,79.824,1
5860,77.479,1
5861,74.482,1
5862,71.216,1
5863,68.105,1
5864,65.509,1
5865,63.644,1
5866,62.543,1
5867,62.074,1
5868,61.98,1
5869,61.932,1
5870,61.595,1
5871,60.708,1
5872,59.139,1
5873,56.906,1
5874,54.148,1
5875,51.049,1
5876,47.79,1
5877,44.52,1
5878,41.377,1
5879,38.47,1
5880,35.867,1
5881,33.605,1
5882,31.739,1
5883,30.362,1
5884,29.568,1
5885,29.38,1
5886,29.745,1
5887,30.557,1
5888,31.686,1
5889,32.963,1
5890,34.164,1
5891,35.031,1
5892,35.329,1
5893,34.876,1
5894,33.564,1
5895,31.331,1
5896,28.167,1
5897,24.133,1
5898,19.375,1
5899,14.1,1
5900,8.5423,1
5901,2.9774,1
5902,-2.2791,1
5903,-6.9091,1
5904,-10.663,1
5905,-13.421,1
5906,-15.215,1
5907,-16.226,1
5908,-16.732,1
5909,-17.029,1
5910,-17.358,1
5911,-17.873,1
5912,-18.651,1
5913,-19.711,1
5914,-21.046,1
5915,-22.65,1
5916,-24.508,1
5917,-26.552,1
5918,-28.623,1
5919,-30.502,1
5920,-31.983,1
5921,-32.947,1
5922,-33.392,1
5923,-33.409,1
5924,-33.119,1
5925,-32.609,1
5926,-31.913,1
5927,-31.046,1
5928,-30.043,1
5929,-28.987,1
5930,-28.026,1
5931,-27.351,1
5932,-27.163,1
5933,-27.644,1
5934,-28.929,1
5935,-31.074,1
5936,-34.02,1
5937,-37.563,1
5938,-41.364,1
5939,-45.015,1
5940,-48.15,1
5941,-50.521,1
5942,-52.018,1
5943,-52.639,1
5944,-52.429,1
5945,-51.426,1
5946,-49.658,1
5947,-47.184,1
5948,-44.157,1
5949,-40.826,1
5950,-37.494,1
5951,-34.466,1
5952,-32.033,1
5953,-30.45,1
5954,-29.912,1
5955,-30.538,1
5956,-32.379,1
5957,-35.403,1
5958,-39.472,1
5959,-44.328,1
5960,-49.637,1
5961,-55.049,1
5962,-60.285,1
5963,-65.201,1
5964,-69.781,1
5965,-74.081,1
5966,-78.165,1
5967,-82.086,1
5968,-85.894,1
5969,-89.684,1
5970,-93.644,1
5971,-98.041,1
5972,-103.1,1
5973,-108.89,1
5974,-115.2,1
5975,-121.63,1
5976,-127.65,1
5977,-132.76,1
5978,-136.47,1
5979,-138.38,1
5980,-138.22,1
5981,-135.83,1
5982,-131.29,1
5983,-124.85,1
5984,-116.9,1
5985,-107.92,1
5986,-98.424,1
5987,-88.874,1
5988,-79.695,1
5989,-71.296,1
5990,-64.067,1
5991,-58.32,1
5992,-54.173,1
5993,-51.453,1
5994,-49.671,1
5995,-48.112,1
5996,-46.006,1
5997,-42.728,1
5998,-37.955,1
5999,-31.717,1
6000,-24.335,1
6001,-16.305,1
6002,-8.1898,1
6003,-0.53216,1
6004,6.2178,1
6005,11.768,1
6006,16.006,1
6007,18.978,1
6008,20.848,1
6009,21.853,1
6010,22.261,1
6011,22.36,1
6012,22.446,1
6013,22.803,1
6014,23.691,1
6015,25.312,1
6016,27.785,1
6017,31.13,1
6018,35.269,1
6019,40.009,1
6020,45.037,1
6021,49.952,1
6022,54.34,1
6023,57.859,1
6024,60.294,1
6025,61.588,1
6026,61.853,1
6027,61.341,1
6028,60.363,1
6029,59.203,1
6030,58.064,1
6031,57.075,1
6032,56.315,1
6033,55.854,1
6034,55.767,1
6035,56.114,1
6036,56.906,1
6037,58.083,1
6038,59.527,1
6039,61.1,1
6040,62.681,1
6041,64.18,1
6042,65.538,1
6043,66.708,1
6044,67.633,1
6045,68.219,1
6046,68.326,1
6047,67.783,1
6048,66.444,1
6049,64.248,1
6050,61.247,1
6051,57.594,1
6052,53.529,1
6053,49.37,1
6054,45.49,1
6055,42.252,1
6056,39.937,1
6057,38.692,1
6058,38.506,1
6059,39.235,1
6060,40.649,1
6061,42.488,1
6062,44.472,1
6063,46.321,1
6064,47.774,1
6065,48.639,1
6066,48.856,1
6067,48.521,1
6068,47.864,1
6069,47.179,1
6070,46.753,1
6071,46.814,1
6072,47.48,1
6073,48.739,1
6074,50.456,1
6075,52.414,1
6076,54.383,1
6077,56.17,1
6078,57.651,1
6079,58.768,1
6080,59.518,1
6081,59.944,1
6082,60.106,1
6083,60.059,1
6084,59.831,1
6085,59.402,1
6086,58.709,1
6087,57.673,1
6088,56.231,1
6089,54.365,1
6090,52.129,1
6091,49.643,1
6092,47.082,1
6093,44.632,1
6094,42.448,1
6095,40.631,1
6096,39.209,1
6097,38.14,1
6098,37.323,1
6099,36.614,1
6100,35.857,1
6101,34.931,1
6102,33.741,1
6103,32.2,1
6104,30.198,1
6105,27.626,1
6106,24.421,1
6107,20.641,1
6108,16.493,1
6109,12.303,1
6110,8.4542,1
6111,5.3056,1
6112,3.1524,1
6113,2.1831,1
6114,2.4409,1
6115,3.7946,1
6116,5.9352,1
6117,8.4065,1
6118,10.666,1
6119,12.16,1
6120,12.403,1
6121,11.06,1
6122,8.0169,1
6123,3.4164,1
6124,-2.3516,1
6125,-8.7215,1
6126,-15.075,1
6127,-20.866,1
6128,-25.695,1
6129,-29.318,1
6130,-31.627,1
6131,-32.63,1
6132,-32.454,1
6133,-31.331,1
6134,-29.579,1
6135,-27.548,1
6136,-25.561,1
6137,-23.875,1
6138,-22.682,1
6139,-22.11,1
6140,-22.216,1
6141,-22.994,1
6142,-24.376,1
6143,-26.245,1
6144,-28.428,1
6145,-30.722,1
6146,-32.913,1
6147,-34.779,1
6148,-36.098,1
6149,-36.69,1
6150,-36.471,1
6151,-35.489,1
6152,-33.915,1
6153,-32.019,1
6154,-30.116,1
6155,-28.507,1
6156,-27.429,1
6157,-27.022,1
6158,-27.331,1
6159,-28.344,1
6160,-30.039,1
6161,-32.381,1
6162,-35.285,1
6163,-38.608,1
6164,-42.171,1
6165,-45.779,1
6166,-49.249,1
6167,-52.434,1
6168,-55.256,1
6169,-57.701,1
6170,-59.829,1
6171,-61.765,1
6172,-63.682,1
6173,-65.769,1
6174,-68.186,1
6175,-71.034,1
6176,-74.341,1
6177,-78.109,1
6178,-82.355,1
6179,-87.112,1
6180,-92.366,1
6181,-98.016,1
6182,-103.88,1
6183,-109.74,1
6184,-115.37,1
6185,-120.62,1
6186,-125.33,1
6187,-129.4,1
6188,-132.72,1
6189,-135.15,1
6190,-136.61,1
6191,-137.04,1
6192,-136.4,1
6193,-134.67,1
6194,-131.88,1
6195,-128.1,1
6196,-123.42,1
6197,-117.95,1
6198,-111.83,1
6199,-105.23,1
6200,-98.353,1
6201,-91.405,1
6202,-84.532,1
6203,-77.813,1
6204,-71.283,1
6205,-64.933,1
6206,-58.717,1
6207,-52.553,1
6208,-46.322,1
6209,-39.874,1
6210,-33.057,1
6211,-25.796,1
6212,-18.161,1
6213,-10.411,1
6214,-2.9453,1
6215,3.7873,1
6216,9.3983,1
6217,13.636,1
6218,16.42,1
6219,17.843,1
6220,18.18,1
6221,17.845,1
6222,17.304,1
6223,16.949,1
6224,17.023,1
6225,17.602,1
6226,18.627,1
6227,19.977,1
6228,21.528,1
6229,23.213,1
6230,25.045,1
6231,27.134,1
6232,29.679,1
6233,32.928,1
6234,37.091,1
6235,42.22,1
6236,48.125,1
6237,54.406,1
6238,60.547,1
6239,66.016,1
6240,70.369,1
6241,73.368,1
6242,75.059,1
6243,75.738,1
6244,75.841,1
6245,75.818,1
6246,76.025,1
6247,76.653,1
6248,77.689,1
6249,78.952,1
6250,80.173,1
6251,81.08,1
6252,81.478,1
6253,81.285,1
6254,80.527,1
6255,79.309,1
6256,77.767,1
6257,76.041,1
6258,74.28,1
6259,72.65,1
6260,71.32,1
6261,70.439,1
6262,70.101,1
6263,70.329,1
6264,71.083,1
6265,72.275,1
6266,73.782,1
6267,75.45,1
6268,77.12,1
6269,78.645,1
6270,79.9,1
6271,80.779,1
6272,81.165,1
6273,80.926,1
6274,79.937,1
6275,78.114,1
6276,75.443,1
6277,72.002,1
6278,67.99,1
6279,63.724,1
6280,59.6,1
6281,56.027,1
6282,53.346,1
6283,51.773,1
6284,51.364,1
6285,52.01,1
6286,53.458,1
6287,55.364,1
6288,57.348,1
6289,59.05,1
6290,60.196,1
6291,60.642,1
6292,60.382,1
6293,59.519,1
6294,58.197,1
6295,56.528,1
6296,54.558,1
6297,52.297,1
6298,49.778,1
6299,47.105,1
6300,44.445,1
6301,41.986,1
6302,39.871,1
6303,38.166,1
6304,36.869,1
6305,35.931,1
6306,35.29,1
6307,34.896,1
6308,34.721,1
6309,34.718,1
6310,34.794,1
6311,34.798,1
6312,34.55,1
6313,33.868,1
6314,32.595,1
6315,30.626,1
6316,27.936,1
6317,24.607,1
6318,20.845,1
6319,16.946,1
6320,13.219,1
6321,9.8896,1
6322,7.0518,1
6323,4.6827,1
6324,2.7153,1
6325,1.0954,1
6326,-0.20303,1
6327,-1.1949,1
6328,-1.901,1
6329,-2.3479,1
6330,-2.5625,1
6331,-2.593,1
6332,-2.5554,1
6333,-2.6643,1
6334,-3.1917,1
6335,-4.3548,1
6336,-6.2114,1
6337,-8.6321,1
6338,-11.345,1
6339,-14.012,1
6340,-16.321,1
6341,-18.048,1
6342,-19.076,1
6343,-19.383,1
6344,-19.046,1
6345,-18.236,1
6346,-17.176,1
6347,-16.105,1
6348,-15.259,1
6349,-14.874,1
6350,-15.142,1
6351,-16.175,1
6352,-17.958,1
6353,-20.347,1
6354,-23.098,1
6355,-25.915,1
6356,-28.493,1
6357,-30.553,1
6358,-31.878,1
6359,-32.358,1
6360,-32.007,1
6361,-30.975,1
6362,-29.529,1
6363,-28,1
6364,-26.724,1
6365,-26.002,1
6366,-26.071,1
6367,-27.063,1
6368,-28.984,1
6369,-31.712,1
6370,-35.047,1
6371,-38.773,1
6372,-42.697,1
6373,-46.641,1
6374,-50.425,1
6375,-53.865,1
6376,-56.784,1
6377,-59.046,1
6378,-60.563,1
6379,-61.32,1
6380,-61.4,1
6381,-61.001,1
6382,-60.428,1
6383,-60.048,1
6384,-60.245,1
6385,-61.359,1
6386,-63.643,1
6387,-67.225,1
6388,-72.1,1
6389,-78.155,1
6390,-85.182,1
6391,-92.913,1
6392,-101.04,1
6393,-109.25,1
6394,-117.2,1
6395,-124.57,1
6396,-131.05,1
6397,-136.4,1
6398,-140.46,1
6399,-143.18,1
6400,-144.62,1
6401,-144.93,1
6402,-144.31,1
6403,-142.94,1
6404,-140.95,1
6405,-138.4,1
6406,-135.36,1
6407,-131.89,1
6408,-128.06,1
6409,-123.91,1
6410,-119.35,1
6411,-114.21,1
6412,-108.27,1
6413,-101.36,1
6414,-93.503,1
6415,-84.932,1
6416,-76.04,1
6417,-67.284,1
6418,-59.085,1
6419,-51.74,1
6420,-45.342,1
6421,-39.758,1
6422,-34.66,1
6423,-29.636,1
6424,-24.328,1
6425,-18.572,1
6426,-12.475,1
6427,-6.3869,1
6428,-0.77042,1
6429,3.9412,1
6430,7.4344,1
6431,9.5658,1
6432,10.397,1
6433,10.21,1
6434,9.4608,1
6435,8.6752,1
6436,8.347,1
6437,8.8792,1
6438,10.545,1
6439,13.456,1
6440,17.563,1
6441,22.693,1
6442,28.578,1
6443,34.87,1
6444,41.163,1
6445,47.045,1
6446,52.178,1
6447,56.356,1
6448,59.517,1
6449,61.715,1
6450,63.084,1
6451,63.799,1
6452,64.06,1
6453,64.103,1
6454,64.191,1
6455,64.577,1
6456,65.429,1
6457,66.767,1
6458,68.451,1
6459,70.23,1
6460,71.829,1
6461,73.026,1
6462,73.687,1
6463,73.77,1
6464,73.29,1
6465,72.276,1
6466,70.727,1
6467,68.617,1
6468,65.943,1
6469,62.799,1
6470,59.435,1
6471,56.22,1
6472,53.537,1
6473,51.681,1
6474,50.816,1
6475,50.956,1
6476,51.977,1
6477,53.652,1
6478,55.722,1
6479,57.977,1
6480,60.295,1
6481,62.615,1
6482,64.868,1
6483,66.903,1
6484,68.465,1
6485,69.279,1
6486,69.165,1
6487,68.126,1
6488,66.361,1
6489,64.207,1
6490,62.043,1
6491,60.209,1
6492,58.953,1
6493,58.387,1
6494,58.461,1
6495,58.985,1
6496,59.712,1
6497,60.419,1
6498,60.946,1
6499,61.215,1
6500,61.218,1
6501,60.998,1
6502,60.603,1
6503,60.074,1
6504,59.445,1
6505,58.747,1
6506,57.983,1
6507,57.116,1
6508,56.096,1
6509,54.904,1
6510,53.554,1
6511,52.068,1
6512,50.467,1
6513,48.785,1
6514,47.096,1
6515,45.542,1
6516,44.276,1
6517,43.375,1
6518,42.774,1
6519,42.277,1
6520,41.611,1
6521,40.495,1
6522,38.7,1
6523,36.141,1
6524,32.918,1
6525,29.287,1
6526,25.588,1
6527,22.181,1
6528,19.39,1
6529,17.458,1
6530,16.506,1
6531,16.522,1
6532,17.385,1
6533,18.871,1
6534,20.658,1
6535,22.358,1
6536,23.589,1
6537,24.05,1
6538,23.571,1
6539,22.101,1
6540,19.692,1
6541,16.49,1
6542,12.722,1
6543,8.6465,1
6544,4.515,1
6545,0.57781,1
6546,-2.9194,1
6547,-5.7716,1
6548,-7.8566,1
6549,-9.1561,1
6550,-9.753,1
6551,-9.8126,1
6552,-9.5599,1
6553,-9.2544,1
6554,-9.1562,1
6555,-9.4891,1
6556,-10.42,1
6557,-12.051,1
6558,-14.401,1
6559,-17.398,1
6560,-20.889,1
6561,-24.669,1
6562,-28.5,1
6563,-32.111,1
6564,-35.221,1
6565,-37.578,1
6566,-39.005,1
6567,-39.435,1
6568,-38.926,1
6569,-37.667,1
6570,-35.946,1
6571,-34.105,1
6572,-32.468,1
6573,-31.268,1
6574,-30.605,1
6575,-30.442,1
6576,-30.663,1
6577,-31.148,1
6578,-31.825,1
6579,-32.66,1
6580,-33.592,1
6581,-34.502,1
6582,-35.208,1
6583,-35.497,1
6584,-35.17,1
6585,-34.104,1
6586,-32.292,1
6587,-29.854,1
6588,-27.025,1
6589,-24.119,1
6590,-21.464,1
6591,-19.323,1
6592,-17.874,1
6593,-17.222,1
6594,-17.429,1
6595,-18.527,1
6596,-20.54,1
6597,-23.495,1
6598,-27.422,1
6599,-32.365,1
6600,-38.375,1
6601,-45.472,1
6602,-53.58,1
6603,-62.466,1
6604,-71.739,1
6605,-80.907,1
6606,-89.486,1
6607,-97.077,1
6608,-103.41,1
6609,-108.35,1
6610,-111.94,1
6611,-114.36,1
6612,-115.91,1
6613,-116.95,1
6614,-117.82,1
6615,-118.84,1
6616,-120.2,1
6617,-121.9,1
6618,-123.75,1
6619,-125.38,1
6620,-126.33,1
6621,-126.18,1
6622,-124.62,1
6623,-121.48,1
6624,-116.73,1
6625,-110.46,1
6626,-102.85,1
6627,-94.203,1
6628,-84.877,1
6629,-75.278,1
6630,-65.772,1
6631,-56.643,1
6632,-48.064,1
6633,-40.109,1
6634,-32.807,1
6635,-26.192,1
6636,-20.301,1
6637,-15.16,1
6638,-10.774,1
6639,-7.1334,1
6640,-4.2256,1
6641,-2.017,1
6642,-0.42984,1
6643,0.67705,1
6644,1.4982,1
6645,2.2473,1
6646,3.1126,1
6647,4.2146,1
6648,5.5793,1
6649,7.1536,1
6650,8.87,1
6651,10.71,1
6652,12.714,1
6653,14.932,1
6654,17.359,1
6655,19.896,1
6656,22.382,1
6657,24.681,1
6658,26.757,1
6659,28.672,1
6660,30.526,1
6661,32.399,1
6662,34.33,1
6663,36.354,1
6664,38.542,1
6665,40.999,1
6666,43.839,1
6667,47.146,1
6668,50.933,1
6669,55.08,1
6670,59.31,1
6671,63.226,1
6672,66.391,1
6673,68.422,1
6674,69.087,1
6675,68.378,1
6676,66.493,1
6677,63.779,1
6678,60.671,1
6679,57.642,1
6680,55.144,1
6681,53.512,1
6682,52.887,1
6683,53.165,1
6684,54.043,1
6685,55.148,1
6686,56.16,1
6687,56.87,1
6688,57.161,1
6689,56.98,1
6690,56.33,1
6691,55.268,1
6692,53.883,1
6693,52.284,1
6694,50.592,1
6695,48.946,1
6696,47.5,1
6697,46.4,1
6698,45.761,1
6699,45.641,1
6700,46.03,1
6701,46.844,1
6702,47.957,1
6703,49.233,1
6704,50.576,1
6705,51.964,1
6706,53.422,1
6707,54.964,1
6708,56.542,1
6709,58.032,1
6710,59.247,1
6711,59.991,1
6712,60.116,1
6713,59.546,1
6714,58.28,1
6715,56.405,1
6716,54.117,1
6717,51.721,1
6718,49.594,1
6719,48.076,1
6720,47.366,1
6721,47.469,1
6722,48.208,1
6723,49.291,1
6724,50.385,1
6725,51.183,1
6726,51.462,1
6727,51.113,1
6728,50.126,1
6729,48.551,1
6730,46.451,1
6731,43.892,1
6732,40.936,1
6733,37.649,1
6734,34.114,1
6735,30.435,1
6736,26.729,1
6737,23.125,1
6738,19.761,1
6739,16.794,1
6740,14.406,1
6741,12.773,1
6742,11.999,1
6743,12.045,1
6744,12.751,1
6745,13.887,1
6746,15.177,1
6747,16.3,1
6748,16.895,1
6749,16.615,1
6750,15.193,1
6751,12.528,1
6752,8.7362,1
6753,4.1673,1
6754,-0.65297,1
6755,-5.1297,1
6756,-8.7198,1
6757,-11.036,1
6758,-11.914,1
6759,-11.432,1
6760,-9.855,1
6761,-7.5505,1
6762,-4.9202,1
6763,-2.3605,1
6764,-0.23884,1
6765,1.1184,1
6766,1.4305,1
6767,0.47521,1
6768,-1.8669,1
6769,-5.5463,1
6770,-10.3,1
6771,-15.666,1
6772,-21.036,1
6773,-25.74,1
6774,-29.154,1
6775,-30.819,1
6776,-30.526,1
6777,-28.348,1
6778,-24.609,1
6779,-19.831,1
6780,-14.63,1
6781,-9.6126,1
6782,-5.2911,1
6783,-2.0248,1
6784,-0.015754,1
6785,0.65073,1
6786,-0.040162,1
6787,-2.0389,1
6788,-5.2024,1
6789,-9.2667,1
6790,-13.852,1
6791,-18.51,1
6792,-22.79,1
6793,-26.319,1
6794,-28.878,1
6795,-30.436,1
6796,-31.132,1
6797,-31.195,1
6798,-30.89,1
6799,-30.469,1
6800,-30.127,1
6801,-29.99,1
6802,-30.125,1
6803,-30.564,1
6804,-31.316,1
6805,-32.384,1
6806,-33.804,1
6807,-35.662,1
6808,-38.066,1
6809,-41.109,1
6810,-44.832,1
6811,-49.208,1
6812,-54.137,1
6813,-59.466,1
6814,-65.038,1
6815,-70.747,1
6816,-76.547,1
6817,-82.445,1
6818,-88.457,1
6819,-94.553,1
6820,-100.63,1
6821,-106.52,1
6822,-112.07,1
6823,-117.18,1
6824,-121.77,1
6825,-125.83,1
6826,-129.4,1
6827,-132.49,1
6828,-135.06,1
6829,-136.9,1
6830,-137.67,1
6831,-136.96,1
6832,-134.34,1
6833,-129.53,1
6834,-122.47,1
6835,-113.33,1
6836,-102.49,1
6837,-90.478,1
6838,-77.945,1
6839,-65.613,1
6840,-54.166,1
6841,-44.125,1
6842,-35.77,1
6843,-29.136,1
6844,-24.084,1
6845,-20.374,1
6846,-17.723,1
6847,-15.846,1
6848,-14.497,1
6849,-13.469,1
6850,-12.568,1
6851,-11.582,1
6852,-10.282,1
6853,-8.446,1
6854,-5.8926,1
6855,-2.5326,1
6856,1.5861,1
6857,6.2577,1
6858,11.135,1
6859,15.789,1
6860,19.814,1
6861,22.93,1
6862,25.029,1
6863,26.163,1
6864,26.521,1
6865,26.399,1
6866,26.157,1
6867,26.147,1
6868,26.647,1
6869,27.824,1
6870,29.725,1
6871,32.281,1
6872,35.34,1
6873,38.697,1
6874,42.121,1
6875,45.376,1
6876,48.249,1
6877,50.591,1
6878,52.338,1
6879,53.507,1
6880,54.163,1
6881,54.35,1
6882,54.077,1
6883,53.341,1
6884,52.192,1
6885,50.748,1
6886,49.17,1
6887,47.634,1
6888,46.322,1
6889,45.406,1
6890,45.027,1
6891,45.282,1
6892,46.23,1
6893,47.892,1
6894,50.241,1
6895,53.18,1
6896,56.528,1
6897,59.997,1
6898,63.188,1
6899,65.63,1
6900,66.893,1
6901,66.707,1
6902,65.028,1
6903,62.051,1
6904,58.179,1
6905,53.933,1
6906,49.85,1
6907,46.393,1
6908,43.879,1
6909,42.449,1
6910,42.073,1
6911,42.586,1
6912,43.732,1
6913,45.222,1
6914,46.799,1
6915,48.295,1
6916,49.642,1
6917,50.851,1
6918,51.95,1
6919,52.941,1
6920,53.791,1
6921,54.448,1
6922,54.85,1
6923,54.933,1
6924,54.661,1
6925,54.032,1
6926,53.057,1
6927,51.736,1
6928,50.063,1
6929,48.087,1
6930,45.969,1
6931,43.961,1
6932,42.333,1
6933,41.284,1
6934,40.89,1
6935,41.092,1
6936,41.722,1
6937,42.532,1
6938,43.245,1
6939,43.595,1
6940,43.359,1
6941,42.401,1
6942,40.725,1
6943,38.481,1
6944,35.918,1
6945,33.313,1
6946,30.924,1
6947,28.961,1
6948,27.555,1
6949,26.761,1
6950,26.543,1
6951,26.755,1
6952,27.157,1
6953,27.454,1
6954,27.335,1
6955,26.511,1
6956,24.74,1
6957,21.873,1
6958,17.898,1
6959,12.964,1
6960,7.3687,1
6961,1.5139,1
6962,-4.1267,1
6963,-9.044,1
6964,-12.752,1
6965,-14.871,1
6966,-15.196,1
6967,-13.736,1
6968,-10.731,1
6969,-6.6423,1
6970,-2.0865,1
6971,2.2765,1
6972,5.8406,1
6973,8.1163,1
6974,8.7708,1
6975,7.6625,1
6976,4.8644,1
6977,0.64636,1
6978,-4.5885,1
6979,-10.364,1
6980,-16.165,1
6981,-21.479,1
6982,-25.879,1
6983,-29.093,1
6984,-31.038,1
6985,-31.81,1
6986,-31.651,1
6987,-30.91,1
6988,-29.993,1
6989,-29.284,1
6990,-29.056,1
6991,-29.416,1
6992,-30.31,1
6993,-31.579,1
6994,-33.029,1
6995,-34.477,1
6996,-35.75,1
6997,-36.699,1
6998,-37.212,1
6999,-37.207,1
7000,-36.628,1
7001,-35.441,1
7002,-33.666,1
7003,-31.399,1
7004,-28.823,1
7005,-26.193,1
7006,-23.791,1
7007,-21.847,1
7008,-20.49,1
7009,-19.737,1
7010,-19.527,1
7011,-19.778,1
7012,-20.421,1
7013,-21.418,1
7014,-22.757,1
7015,-24.434,1
7016,-26.446,1
7017,-28.779,1
7018,-31.392,1
7019,-34.207,1
7020,-37.09,1
7021,-39.839,1
7022,-42.211,1
7023,-43.983,1
7024,-45.01,1
7025,-45.248,1
7026,-44.74,1
7027,-43.615,1
7028,-42.087,1
7029,-40.451,1
7030,-39.073,1
7031,-38.361,1
7032,-38.721,1
7033,-40.494,1
7034,-43.923,1
7035,-49.132,1
7036,-56.084,1
7037,-64.525,1
7038,-73.975,1
7039,-83.807,1
7040,-93.382,1
7041,-102.16,1
7042,-109.75,1
7043,-115.94,1
7044,-120.66,1
7045,-123.87,1
7046,-125.57,1
7047,-125.81,1
7048,-124.66,1
7049,-122.25,1
7050,-118.77,1
7051,-114.5,1
7052,-109.82,1
7053,-105.13,1
7054,-100.8,1
7055,-96.991,1
7056,-93.665,1
7057,-90.566,1
7058,-87.3,1
7059,-83.433,1
7060,-78.603,1
7061,-72.586,1
7062,-65.311,1
7063,-56.863,1
7064,-47.478,1
7065,-37.5,1
7066,-27.329,1
7067,-17.369,1
7068,-8.0104,1
7069,0.37226,1
7070,7.4561,1
7071,13.013,1
7072,16.945,1
7073,19.305,1
7074,20.304,1
7075,20.281,1
7076,19.634,1
7077,18.776,1
7078,18.097,1
7079,17.933,1
7080,18.504,1
7081,19.878,1
7082,21.967,1
7083,24.576,1
7084,27.46,1
7085,30.384,1
7086,33.168,1
7087,35.699,1
7088,37.9,1
7089,39.69,1
7090,40.993,1
7091,41.798,1
7092,42.203,1
7093,42.397,1
7094,42.611,1
7095,43.071,1
7096,43.97,1
7097,45.46,1
7098,47.632,1
7099,50.497,1
7100,53.977,1
7101,57.898,1
7102,62.002,1
7103,65.956,1
7104,69.402,1
7105,72.027,1
7106,73.628,1
7107,74.126,1
7108,73.556,1
7109,72.042,1
7110,69.762,1
7111,66.931,1
7112,63.8,1
7113,60.652,1
7114,57.788,1
7115,55.492,1
7116,53.978,1
7117,53.346,1
7118,53.584,1
7119,54.588,1
7120,56.176,1
7121,58.084,1
7122,59.971,1
7123,61.458,1
7124,62.217,1
7125,62.087,1
7126,61.126,1
7127,59.57,1
7128,57.729,1
7129,55.878,1
7130,54.203,1
7131,52.84,1
7132,51.924,1
7133,51.593,1
7134,51.928,1
7135,52.89,1
7136,54.321,1
7137,55.993,1
7138,57.683,1
7139,59.202,1
7140,60.41,1
7141,61.21,1
7142,61.58,1
7143,61.58,1
7144,61.318,1
7145,60.893,1
7146,60.362,1
7147,59.749,1
7148,59.079,1
7149,58.407,1
7150,57.805,1
7151,57.339,1
7152,57.039,1
7153,56.871,1
7154,56.731,1
7155,56.46,1
7156,55.857,1
7157,54.733,1
7158,52.968,1
7159,50.563,1
7160,47.648,1
7161,44.449,1
7162,41.243,1
7163,38.286,1
7164,35.751,1
7165,33.699,1
7166,32.09,1
7167,30.812,1
7168,29.725,1
7169,28.699,1
7170,27.649,1
7171,26.547,1
7172,25.417,1
7173,24.328,1
7174,23.357,1
7175,22.516,1
7176,21.696,1
7177,20.692,1
7178,19.279,1
7179,17.301,1
7180,14.737,1
7181,11.708,1
7182,8.4531,1
7183,5.2706,1
7184,2.4519,1
7185,0.22128,1
7186,-1.3129,1
7187,-2.1805,1
7188,-2.5429,1
7189,-2.6511,1
7190,-2.767,1
7191,-3.0929,1
7192,-3.7485,1
7193,-4.7875,1
7194,-6.2169,1
7195,-8.0064,1
7196,-10.097,1
7197,-12.418,1
7198,-14.889,1
7199,-17.409,1
7200,-19.831,1
7201,-21.973,1
7202,-23.666,1
7203,-24.811,1
7204,-25.419,1
7205,-25.616,1
7206,-25.6,1
7207,-25.602,1
7208,-25.836,1
7209,-26.454,1
7210,-27.509,1
7211,-28.946,1
7212,-30.635,1
7213,-32.412,1
7214,-34.126,1
7215,-35.647,1
7216,-36.862,1
7217,-37.676,1
7218,-38.017,1
7219,-37.869,1
7220,-37.309,1
7221,-36.515,1
7222,-35.73,1
7223,-35.194,1
7224,-35.078,1
7225,-35.444,1
7226,-36.219,1
7227,-37.218,1
7228,-38.197,1
7229,-38.946,1
7230,-39.345,1
7231,-39.404,1
7232,-39.242,1
7233,-39.033,1
7234,-38.946,1
7235,-39.1,1
7236,-39.56,1
7237,-40.345,1
7238,-41.445,1
7239,-42.817,1
7240,-44.391,1
7241,-46.086,1
7242,-47.819,1
7243,-49.48,1
7244,-50.892,1
7245,-51.847,1
7246,-52.158,1
7247,-51.714,1
7248,-50.51,1
7249,-48.656,1
7250,-46.36,1
7251,-43.881,1
7252,-41.481,1
7253,-39.382,1
7254,-37.729,1
7255,-36.568,1
7256,-35.852,1
7257,-35.471,1
7258,-35.299,1
7259,-35.243,1
7260,-35.271,1
7261,-35.432,1
7262,-35.843,1
7263,-36.655,1
7264,-37.997,1
7265,-39.932,1
7266,-42.421,1
7267,-45.323,1
7268,-48.446,1
7269,-51.643,1
7270,-54.874,1
7271,-58.214,1
7272,-61.807,1
7273,-65.789,1
7274,-70.237,1
7275,-75.122,1
7276,-80.299,1
7277,-85.548,1
7278,-90.694,1
7279,-95.673,1
7280,-100.5,1
7281,-105.21,1
7282,-109.75,1
7283,-114,1
7284,-117.75,1
7285,-120.68,1
7286,-122.46,1
7287,-122.78,1
7288,-121.42,1
7289,-118.29,1
7290,-113.47,1
7291,-107.18,1
7292,-99.727,1
7293,-91.498,1
7294,-82.885,1
7295,-74.28,1
7296,-66.054,1
7297,-58.51,1
7298,-51.854,1
7299,-46.162,1
7300,-41.351,1
7301,-37.17,1
7302,-33.259,1
7303,-29.243,1
7304,-24.82,1
7305,-19.812,1
7306,-14.177,1
7307,-7.9862,1
7308,-1.389,1
7309,5.4089,1
7310,12.145,1
7311,18.504,1
7312,24.163,1
7313,28.876,1
7314,32.541,1
7315,35.194,1
7316,36.95,1
7317,37.962,1
7318,38.394,1
7319,38.433,1
7320,38.297,1
7321,38.237,1
7322,38.509,1
7323,39.324,1
7324,40.804,1
7325,42.963,1
7326,45.714,1
7327,48.893,1
7328,52.293,1
7329,55.723,1
7330,59.043,1
7331,62.165,1
7332,65.035,1
7333,67.638,1
7334,69.991,1
7335,72.123,1
7336,74.036,1
7337,75.701,1
7338,77.072,1
7339,78.094,1
7340,78.716,1
7341,78.929,1
7342,78.799,1
7343,78.472,1
7344,78.153,1
7345,78.064,1
7346,78.377,1
7347,79.159,1
7348,80.35,1
7349,81.786,1
7350,83.26,1
7351,84.567,1
7352,85.54,1
7353,86.058,1
7354,86.056,1
7355,85.497,1
7356,84.33,1
7357,82.483,1
7358,79.921,1
7359,76.743,1
7360,73.245,1
7361,69.871,1
7362,67.101,1
7363,65.31,1
7364,64.65,1
7365,65.022,1
7366,66.126,1
7367,67.551,1
7368,68.863,1
7369,69.681,1
7370,69.744,1
7371,68.952,1
7372,67.364,1
7373,65.161,1
7374,62.603,1
7375,59.991,1
7376,57.622,1
7377,55.751,1
7378,54.567,1
7379,54.185,1
7380,54.633,1
7381,55.823,1
7382,57.513,1
7383,59.346,1
7384,60.959,1
7385,62.097,1
7386,62.648,1
7387,62.603,1
7388,61.986,1
7389,60.808,1
7390,59.043,1
7391,56.642,1
7392,53.568,1
7393,49.844,1
7394,45.581,1
7395,40.992,1
7396,36.364,1
7397,32.023,1
7398,28.291,1
7399,25.451,1
7400,23.692,1
7401,23.075,1
7402,23.533,1
7403,24.894,1
7404,26.906,1
7405,29.261,1
7406,31.624,1
7407,33.659,1
7408,35.063,1
7409,35.596,1
7410,35.134,1
7411,33.703,1
7412,31.474,1
7413,28.714,1
7414,25.727,1
7415,22.766,1
7416,19.952,1
7417,17.258,1
7418,14.554,1
7419,11.688,1
7420,8.548,1
7421,5.0993,1
7422,1.4025,1
7423,-2.3971,1
7424,-6.1029,1
7425,-9.5134,1
7426,-12.453,1
7427,-14.789,1
7428,-16.454,1
7429,-17.501,1
7430,-18.128,1
7431,-18.632,1
7432,-19.317,1
7433,-20.408,1
7434,-21.996,1
7435,-24.03,1
7436,-26.325,1
7437,-28.587,1
7438,-30.46,1
7439,-31.593,1
7440,-31.724,1
7441,-30.75,1
7442,-28.761,1
7443,-26.006,1
7444,-22.824,1
7445,-19.565,1
7446,-16.532,1
7447,-13.958,1
7448,-12.019,1
7449,-10.877,1
7450,-10.691,1
7451,-11.586,1
7452,-13.581,1
7453,-16.535,1
7454,-20.162,1
7455,-24.092,1
7456,-27.942,1
7457,-31.363,1
7458,-34.076,1
7459,-35.909,1
7460,-36.83,1
7461,-36.968,1
7462,-36.584,1
7463,-36.003,1
7464,-35.52,1
7465,-35.343,1
7466,-35.591,1
7467,-36.339,1
7468,-37.638,1
7469,-39.525,1
7470,-42,1
7471,-45.002,1
7472,-48.399,1
7473,-51.99,1
7474,-55.534,1
7475,-58.757,1
7476,-61.36,1
7477,-63.039,1
7478,-63.536,1
7479,-62.698,1
7480,-60.512,1
7481,-57.119,1
7482,-52.8,1
7483,-47.928,1
7484,-42.917,1
7485,-38.192,1
7486,-34.175,1
7487,-31.235,1
7488,-29.627,1
7489,-29.431,1
7490,-30.531,1
7491,-32.638,1
7492,-35.348,1
7493,-38.233,1
7494,-40.924,1
7495,-43.168,1
7496,-44.833,1
7497,-45.892,1
7498,-46.368,1
7499,-46.289,1
7500,-45.669,1
7501,-44.521,1
7502,-42.884,1
7503,-40.843,1
7504,-38.535,1
7505,-36.162,1
7506,-34.008,1
7507,-32.45,1
7508,-31.877,1
7509,-32.564,1
7510,-34.571,1
7511,-37.764,1
7512,-41.888,1
7513,-46.66,1
7514,-51.825,1
7515,-57.18,1
7516,-62.607,1
7517,-68.088,1
7518,-73.678,1
7519,-79.414,1
7520,-85.23,1
7521,-90.973,1
7522,-96.463,1
7523,-101.56,1
7524,-106.18,1
7525,-110.32,1
7526,-114.07,1
7527,-117.53,1
7528,-120.8,1
7529,-123.9,1
7530,-126.75,1
7531,-129.15,1
7532,-130.8,1
7533,-131.39,1
7534,-130.57,1
7535,-128.11,1
7536,-123.88,1
7537,-117.91,1
7538,-110.4,1
7539,-101.64,1
7540,-91.985,1
7541,-81.778,1
7542,-71.311,1
7543,-60.866,1
7544,-50.769,1
7545,-41.392,1
7546,-33.088,1
7547,-26.093,1
7548,-20.462,1
7549,-16.061,1
7550,-12.584,1
7551,-9.5901,1
7552,-6.6011,1
7553,-3.2209,1
7554,0.76985,1
7555,5.3765,1
7556,10.427,1
7557,15.667,1
7558,20.848,1
7559,25.768,1
7560,30.252,1
7561,34.122,1
7562,37.205,1
7563,39.398,1
7564,40.717,1
7565,41.289,1
7566,41.323,1
7567,41.076,1
7568,40.84,1
7569,40.916,1
7570,41.58,1
7571,43.04,1
7572,45.378,1
7573,48.519,1
7574,52.249,1
7575,56.274,1
7576,60.312,1
7577,64.159,1
7578,67.716,1
7579,70.938,1
7580,73.774,1
7581,76.132,1
7582,77.894,1
7583,78.966,1
7584,79.325,1
7585,79.06,1
7586,78.378,1
7587,77.574,1
7588,76.975,1
7589,76.903,1
7590,77.627,1
7591,79.302,1
7592,81.908,1
7593,85.256,1
7594,89.04,1
7595,92.918,1
7596,96.562,1
7597,99.682,1
7598,102.04,1
7599,103.43,1
7600,103.68,1
7601,102.66,1
7602,100.3,1
7603,96.684,1
7604,92.002,1
7605,86.621,1
7606,81.044,1
7607,75.842,1
7608,71.554,1
7609,68.593,1
7610,67.177,1
7611,67.321,1
7612,68.837,1
7613,71.367,1
7614,74.45,1
7615,77.626,1
7616,80.511,1
7617,82.834,1
7618,84.425,1
7619,85.19,1
7620,85.085,1
7621,84.119,1
7622,82.367,1
7623,79.986,1
7624,77.204,1
7625,74.269,1
7626,71.384,1
7627,68.678,1
7628,66.232,1
7629,64.091,1
7630,62.246,1
7631,60.626,1
7632,59.17,1
7633,57.89,1
7634,56.86,1
7635,56.141,1
7636,55.716,1
7637,55.492,1
7638,55.322,1
7639,55.032,1
7640,54.436,1
7641,53.371,1
7642,51.726,1
7643,49.486,1
7644,46.769,1
7645,43.814,1
7646,40.918,1
7647,38.337,1
7648,36.229,1
7649,34.621,1
7650,33.418,1
7651,32.439,1
7652,31.47,1
7653,30.336,1
7654,28.932,1
7655,27.227,1
7656,25.263,1
7657,23.152,1
7658,21.041,1
7659,19.04,1
7660,17.189,1
7661,15.469,1
7662,13.837,1
7663,12.253,1
7664,10.697,1
7665,9.1725,1
7666,7.7017,1
7667,6.3167,1
7668,5.0506,1
7669,3.9306,1
7670,2.9728,1
7671,2.1647,1
7672,1.445,1
7673,0.70718,1
7674,-0.17646,1
7675,-1.3359,1
7676,-2.8939,1
7677,-4.9491,1
7678,-7.5535,1
7679,-10.703,1
7680,-14.335,1
7681,-18.317,1
7682,-22.433,1
7683,-26.407,1
7684,-29.955,1
7685,-32.842,1
7686,-34.921,1
7687,-36.146,1
7688,-36.55,1
7689,-36.192,1
7690,-35.119,1
7691,-33.382,1
7692,-31.105,1
7693,-28.55,1
7694,-26.141,1
7695,-24.408,1
7696,-23.861,1
7697,-24.828,1
7698,-27.354,1
7699,-31.194,1
7700,-35.874,1
7701,-40.795,1
7702,-45.353,1
7703,-49.05,1
7704,-51.578,1
7705,-52.843,1
7706,-52.95,1
7707,-52.173,1
7708,-50.909,1
7709,-49.596,1
7710,-48.629,1
7711,-48.293,1
7712,-48.713,1
7713,-49.851,1
7714,-51.537,1
7715,-53.527,1
7716,-55.55,1
7717,-57.358,1
7718,-58.77,1
7719,-59.694,1
7720,-60.109,1
7721,-60.044,1
7722,-59.547,1
7723,-58.688,1
7724,-57.557,1
7725,-56.296,1
7726,-55.084,1
7727,-54.082,1
7728,-53.344,1
7729,-52.779,1
7730,-52.183,1
7731,-51.31,1
7732,-49.969,1
7733,-48.101,1
7734,-45.808,1
7735,-43.34,1
7736,-41.043,1
7737,-39.275,1
7738,-38.287,1
7739,-38.136,1
7740,-38.697,1
7741,-39.742,1
7742,-41.027,1
7743,-42.322,1
7744,-43.428,1
7745,-44.185,1
7746,-44.478,1
7747,-44.247,1
7748,-43.509,1
7749,-42.363,1
7750,-40.983,1
7751,-39.614,1
7752,-38.562,1
7753,-38.157,1
7754,-38.688,1
7755,-40.327,1
7756,-43.094,1
7757,-46.877,1
7758,-51.481,1
7759,-56.676,1
7760,-62.265,1
7761,-68.115,1
7762,-74.139,1
7763,-80.265,1
7764,-86.396,1
7765,-92.399,1
7766,-98.112,1
7767,-103.36,1
7768,-107.97,1
7769,-111.81,1
7770,-114.75,1
7771,-116.78,1
7772,-117.93,1
7773,-118.36,1
7774,-118.27,1
7775,-117.91,1
7776,-117.47,1
7777,-117,1
7778,-116.36,1
7779,-115.21,1
7780,-113.15,1
7781,-109.84,1
7782,-105.11,1
7783,-98.985,1
7784,-91.655,1
7785,-83.384,1
7786,-74.482,1
7787,-65.279,1
7788,-56.136,1
7789,-47.456,1
7790,-39.658,1
7791,-33.086,1
7792,-27.886,1
7793,-23.934,1
7794,-20.868,1
7795,-18.168,1
7796,-15.264,1
7797,-11.64,1
7798,-6.9519,1
7799,-1.0887,1
7800,5.8126,1
7801,13.396,1
7802,21.142,1
7803,28.474,1
7804,34.882,1
7805,40.032,1
7806,43.824,1
7807,46.383,1
7808,47.984,1
7809,48.949,1
7810,49.573,1
7811,50.073,1
7812,50.583,1
7813,51.173,1
7814,51.9,1
7815,52.832,1
7816,54.058,1
7817,55.689,1
7818,57.851,1
7819,60.629,1
7820,64.026,1
7821,67.94,1
7822,72.168,1
7823,76.438,1
7824,80.482,1
7825,84.098,1
7826,87.158,1
7827,89.571,1
7828,91.263,1
7829,92.188,1
7830,92.348,1
7831,91.797,1
7832,90.612,1
7833,88.91,1
7834,86.882,1
7835,84.804,1
7836,82.99,1
7837,81.713,1
7838,81.134,1
7839,81.261,1
7840,81.95,1
7841,82.933,1
7842,83.882,1
7843,84.484,1
7844,84.507,1
7845,83.815,1
7846,82.363,1
7847,80.201,1
7848,77.475,1
7849,74.43,1
7850,71.366,1
7851,68.594,1
7852,66.393,1
7853,64.992,1
7854,64.554,1
7855,65.149,1
7856,66.734,1
7857,69.143,1
7858,72.107,1
7859,75.317,1
7860,78.488,1
7861,81.39,1
7862,83.86,1
7863,85.784,1
7864,87.089,1
7865,87.729,1
7866,87.672,1
7867,86.918,1
7868,85.489,1
7869,83.437,1
7870,80.85,1
7871,77.874,1
7872,74.71,1
7873,71.593,1
7874,68.747,1
7875,66.344,1
7876,64.47,1
7877,63.135,1
7878,62.286,1
7879,61.831,1
7880,61.663,1
7881,61.646,1
7882,61.593,1
7883,61.271,1
7884,60.433,1
7885,58.861,1
7886,56.398,1
7887,52.983,1
7888,48.666,1
7889,43.636,1
7890,38.229,1
7891,32.895,1
7892,28.105,1
7893,24.235,1
7894,21.491,1
7895,19.893,1
7896,19.315,1
7897,19.533,1
7898,20.28,1
7899,21.293,1
7900,22.342,1
7901,23.242,1
7902,23.85,1
7903,24.069,1
7904,23.839,1
7905,23.13,1
7906,21.926,1
7907,20.232,1
7908,18.092,1
7909,15.599,1
7910,12.857,1
7911,9.9667,1
7912,7.0239,1
7913,4.1263,1
7914,1.3845,1
7915,-1.0796,1
7916,-3.1662,1
7917,-4.8525,1
7918,-6.2316,1
7919,-7.5022,1
7920,-8.9101,1
7921,-10.667,1
7922,-12.883,1
7923,-15.546,1
7924,-18.549,1
7925,-21.728,1
7926,-24.885,1
7927,-27.794,1
7928,-30.249,1
7929,-32.123,1
7930,-33.389,1
7931,-34.104,1
7932,-34.395,1
7933,-34.474,1
7934,-34.644,1
7935,-35.239,1
7936,-36.503,1
7937,-38.489,1
7938,-41.041,1
7939,-43.861,1
7940,-46.585,1
7941,-48.883,1
7942,-50.542,1
7943,-51.503,1
7944,-51.825,1
7945,-51.631,1
7946,-51.045,1
7947,-50.157,1
7948,-49.01,1
7949,-47.638,1
7950,-46.114,1
7951,-44.569,1
7952,-43.197,1
7953,-42.241,1
7954,-41.911,1
7955,-42.292,1
7956,-43.287,1
7957,-44.648,1
7958,-46.053,1
7959,-47.176,1
7960,-47.745,1
7961,-47.58,1
7962,-46.608,1
7963,-44.895,1
7964,-42.647,1
7965,-40.166,1
7966,-37.765,1
7967,-35.714,1
7968,-34.208,1
7969,-33.372,1
7970,-33.26,1
7971,-33.857,1
7972,-35.05,1
7973,-36.634,1
7974,-38.348,1
7975,-39.932,1
7976,-41.17,1
7977,-41.908,1
7978,-42.083,1
7979,-41.745,1
7980,-41.071,1
7981,-40.349,1
7982,-39.938,1
7983,-40.185,1
7984,-41.331,1
7985,-43.436,1
7986,-46.384,1
7987,-49.929,1
7988,-53.765,1
7989,-57.602,1
7990,-61.231,1
7991,-64.579,1
7992,-67.707,1
7993,-70.775,1
7994,-73.978,1
7995,-77.479,1
7996,-81.376,1
7997,-85.705,1
7998,-90.445,1
7999,-95.543,1
8000,-100.93,1
8001,-106.53,1
8002,-112.19,1
8003,-117.72,1
8004,-122.9,1
8005,-127.55,1
8006,-131.55,1
8007,-134.83,1
8008,-137.35,1
8009,-139.05,1
8010,-139.91,1
8011,-139.98,1
8012,-139.31,1
8013,-137.96,1
8014,-135.9,1
8015,-133.06,1
8016,-129.34,1
8017,-124.71,1
8018,-119.18,1
8019,-112.81,1
8020,-105.69,1
8021,-97.966,1
8022,-89.741,1
8023,-81.121,1
8024,-72.216,1
8025,-63.146,1
8026,-54.034,1
8027,-44.998,1
8028,-36.149,1
8029,-27.582,1
8030,-19.374,1
8031,-11.585,1
8032,-4.2446,1
8033,2.6391,1
8034,9.0583,1
8035,14.977,1
8036,20.312,1
8037,24.926,1
8038,28.653,1
8039,31.351,1
8040,32.974,1
8041,33.622,1
8042,33.555,1
8043,33.148,1
8044,32.829,1
8045,32.98,1
8046,33.859,1
8047,35.559,1
8048,38.023,1
8049,41.09,1
8050,44.521,1
8051,48.041,1
8052,51.379,1
8053,54.313,1
8054,56.709,1
8055,58.531,1
8056,59.805,1
8057,60.587,1
8058,60.964,1
8059,61.104,1
8060,61.292,1
8061,61.907,1
8062,63.325,1
8063,65.815,1
8064,69.472,1
8065,74.21,1
8066,79.782,1
8067,85.819,1
8068,91.909,1
8069,97.646,1
8070,102.66,1
8071,106.61,1
8072,109.22,1
8073,110.26,1
8074,109.63,1
8075,107.3,1
8076,103.41,1
8077,98.28,1
8078,92.392,1
8079,86.343,1
8080,80.728,1
8081,76.053,1
8082,72.693,1
8083,70.869,1
8084,70.627,1
8085,71.843,1
8086,74.245,1
8087,77.466,1
8088,81.088,1
8089,84.698,1
8090,87.938,1
8091,90.522,1
8092,92.242,1
8093,92.99,1
8094,92.761,1
8095,91.633,1
8096,89.704,1
8097,87.062,1
8098,83.807,1
8099,80.089,1
8100,76.126,1
8101,72.185,1
8102,68.555,1
8103,65.512,1
8104,63.284,1
8105,62.023,1
8106,61.794,1
8107,62.569,1
8108,64.229,1
8109,66.566,1
8110,69.292,1
8111,72.05,1
8112,74.448,1
8113,76.11,1
8114,76.75,1
8115,76.238,1
8116,74.659,1
8117,72.306,1
8118,69.602,1
8119,66.988,1
8120,64.823,1
8121,63.325,1
8122,62.551,1
8123,62.387,1
8124,62.578,1
8125,62.798,1
8126,62.731,1
8127,62.116,1
8128,60.766,1
8129,58.591,1
8130,55.596,1
8131,51.874,1
8132,47.608,1
8133,43.072,1
8134,38.607,1
8135,34.568,1
8136,31.279,1
8137,29.001,1
8138,27.873,1
8139,27.867,1
8140,28.761,1
8141,30.179,1
8142,31.655,1
8143,32.706,1
8144,32.918,1
8145,32.018,1
8146,29.955,1
8147,26.917,1
8148,23.271,1
8149,19.433,1
8150,15.742,1
8151,12.395,1
8152,9.43,1
8153,6.7759,1
8154,4.3122,1
8155,1.9284,1
8156,-0.44098,1
8157,-2.8053,1
8158,-5.1208,1
8159,-7.3031,1
8160,-9.2568,1
8161,-10.918,1
8162,-12.288,1
8163,-13.451,1
8164,-14.552,1
8165,-15.77,1
8166,-17.27,1
8167,-19.147,1
8168,-21.401,1
8169,-23.953,1
8170,-26.711,1
8171,-29.614,1
8172,-32.631,1
8173,-35.72,1
8174,-38.786,1
8175,-41.686,1
8176,-44.245,1
8177,-46.302,1
8178,-47.754,1
8179,-48.603,1
8180,-48.956,1
8181,-48.983,1
8182,-48.863,1
8183,-48.757,1
8184,-48.792,1
8185,-49.057,1
8186,-49.613,1
8187,-50.512,1
8188,-51.818,1
8189,-53.604,1
8190,-55.925,1
8191,-58.754,1
8192,-61.934,1
8193,-65.206,1
8194,-68.303,1
8195,-71.027,1
8196,-73.262,1
8197,-74.926,1
8198,-75.938,1
8199,-76.225,1
8200,-75.766,1
8201,-74.628,1
8202,-72.956,1
8203,-70.928,1
8204,-68.7,1
8205,-66.398,1
8206,-64.137,1
8207,-62.059,1
8208,-60.33,1
8209,-59.124,1
8210,-58.564,1
8211,-58.648,1
8212,-59.192,1
8213,-59.841,1
8214,-60.185,1
8215,-59.902,1
8216,-58.85,1
8217,-57.103,1
8218,-54.915,1
8219,-52.655,1
8220,-50.714,1
8221,-49.437,1
8222,-49.044,1
8223,-49.589,1
8224,-50.966,1
8225,-52.999,1
8226,-55.537,1
8227,-58.51,1
8228,-61.938,1
8229,-65.901,1
8230,-70.497,1
8231,-75.81,1
8232,-81.875,1
8233,-88.653,1
8234,-96.038,1
8235,-103.88,1
8236,-112,1
8237,-120.16,1
8238,-128.09,1
8239,-135.49,1
8240,-142.12,1
8241,-147.74,1
8242,-152.21,1
8243,-155.42,1
8244,-157.39,1
8245,-158.26,1
8246,-158.32,1
8247,-157.89,1
8248,-157.25,1
8249,-156.52,1
8250,-155.61,1
8251,-154.28,1
8252,-152.22,1
8253,-149.11,1
8254,-144.65,1
8255,-138.65,1
8256,-131.14,1
8257,-122.34,1
8258,-112.61,1
8259,-102.39,1
8260,-92.091,1
8261,-82.091,1
8262,-72.69,1
8263,-64.073,1
8264,-56.31,1
8265,-49.378,1
8266,-43.184,1
8267,-37.58,1
8268,-32.385,1
8269,-27.412,1
8270,-22.492,1
8271,-17.473,1
8272,-12.226,1
8273,-6.6849,1
8274,-0.88524,1
8275,5.0371,1
8276,10.89,1
8277,16.488,1
8278,21.714,1
8279,26.549,1
8280,31.073,1
8281,35.45,1
8282,39.878,1
8283,44.524,1
8284,49.457,1
8285,54.609,1
8286,59.79,1
8287,64.758,1
8288,69.32,1
8289,73.393,1
8290,77.021,1
8291,80.333,1
8292,83.472,1
8293,86.52,1
8294,89.465,1
8295,92.235,1
8296,94.746,1
8297,96.944,1
8298,98.811,1
8299,100.36,1
8300,101.61,1
8301,102.61,1
8302,103.41,1
8303,104.1,1
8304,104.76,1
8305,105.41,1
8306,106.02,1
8307,106.56,1
8308,107.01,1
8309,107.32,1
8310,107.53,1
8311,107.69,1
8312,107.88,1
8313,108.22,1
8314,108.88,1
8315,109.98,1
8316,111.6,1
8317,113.62,1
8318,115.81,1
8319,117.82,1
8320,119.24,1
8321,119.72,1
8322,119.02,1
8323,117.09,1
8324,114.11,1
8325,110.45,1
8326,106.6,1
8327,103.07,1
8328,100.29,1
8329,98.517,1
8330,97.839,1
8331,98.177,1
8332,99.297,1
8333,100.86,1
8334,102.5,1
8335,103.96,1
8336,105.08,1
8337,105.82,1
8338,106.23,1
8339,106.37,1
8340,106.31,1
8341,106.1,1
8342,105.79,1
8343,105.39,1
8344,104.92,1
8345,104.45,1
8346,104.03,1
8347,103.7,1
8348,103.47,1
8349,103.26,1
8350,102.94,1
8351,102.36,1
8352,101.38,1
8353,99.864,1
8354,97.74,1
8355,95.013,1
8356,91.768,1
8357,88.132,1
8358,84.239,1
8359,80.192,1
8360,76.051,1
8361,71.875,1
8362,67.771,1
8363,63.93,1
8364,60.583,1
8365,57.924,1
8366,56.033,1
8367,54.86,1
8368,54.245,1
8369,53.955,1
8370,53.728,1
8371,53.311,1
8372,52.488,1
8373,51.099,1
8374,49.044,1
8375,46.279,1
8376,42.822,1
8377,38.755,1
8378,34.179,1
8379,29.185,1
8380,23.861,1
8381,18.349,1
8382,12.881,1
8383,7.7733,1
8384,3.3702,1
8385,-0.027795,1
8386,-2.2345,1
8387,-3.2321,1
8388,-3.1915,1
8389,-2.4491,1
8390,-1.4551,1
8391,-0.70979,1
8392,-0.69127,1
8393,-1.7734,1
8394,-4.1497,1
8395,-7.8048,1
8396,-12.558,1
8397,-18.136,1
8398,-24.22,1
8399,-30.451,1
8400,-36.454,1
8401,-41.871,1
8402,-46.374,1
8403,-49.684,1
8404,-51.599,1
8405,-52.058,1
8406,-51.187,1
8407,-49.29,1
8408,-46.798,1
8409,-44.167,1
8410,-41.804,1
8411,-40.024,1
8412,-39.052,1
8413,-39.04,1
8414,-40.066,1
8415,-42.123,1
8416,-45.127,1
8417,-48.926,1
8418,-53.314,1
8419,-58.055,1
8420,-62.886,1
8421,-67.523,1
8422,-71.664,1
8423,-75.023,1
8424,-77.372,1
